# Profil de ElecX au temps 1.900999999999955e-11 
# simu : /Volumes/MERCURE/JOBS/Zeq2_tanh_50mic_1p5e20_B0_20ps/GNU/ElecX@y-c.set
# col 0 : abscisse (um)
# col 1 : ElecX (V/m)
0.00000000e+00	0.00000000e+00
1.00000000e+00	5.23775629e+03
2.00000000e+00	5.52988649e+03
3.00000000e+00	8.57883806e+03
4.00000000e+00	1.25817894e+04
5.00000000e+00	1.55688665e+04
6.00000000e+00	1.86566321e+04
7.00000000e+00	2.17633398e+04
8.00000000e+00	2.48725206e+04
9.00000000e+00	2.79822093e+04
1.00000000e+01	3.10920961e+04
1.10000000e+01	3.42022188e+04
1.20000000e+01	3.73130877e+04
1.30000000e+01	4.04237330e+04
1.40000000e+01	4.35348835e+04
1.50000000e+01	4.66469585e+04
1.60000000e+01	4.97593227e+04
1.70000000e+01	5.28715283e+04
1.80000000e+01	5.59854004e+04
1.90000000e+01	5.90989270e+04
2.00000000e+01	6.22133512e+04
2.10000000e+01	6.53289364e+04
2.20000000e+01	6.84439191e+04
2.30000000e+01	7.15616168e+04
2.40000000e+01	7.46775516e+04
2.50000000e+01	7.77968690e+04
2.60000000e+01	8.09146706e+04
2.70000000e+01	8.40358624e+04
2.80000000e+01	8.71550565e+04
2.90000000e+01	9.02779593e+04
3.00000000e+01	9.33999627e+04
3.10000000e+01	9.65240211e+04
3.20000000e+01	9.96486943e+04
3.30000000e+01	1.02774788e+05
3.40000000e+01	1.05902015e+05
3.50000000e+01	1.09030133e+05
3.60000000e+01	1.12160272e+05
3.70000000e+01	1.15290855e+05
3.80000000e+01	1.18423330e+05
3.90000000e+01	1.21557660e+05
4.00000000e+01	1.24692062e+05
4.10000000e+01	1.27830010e+05
4.20000000e+01	1.30967682e+05
4.30000000e+01	1.34107947e+05
4.40000000e+01	1.37250499e+05
4.50000000e+01	1.40393042e+05
4.60000000e+01	1.43539255e+05
4.70000000e+01	1.46686744e+05
4.80000000e+01	1.49835404e+05
4.90000000e+01	1.52987242e+05
5.00000000e+01	1.56140884e+05
5.10000000e+01	1.59295983e+05
5.20000000e+01	1.62454223e+05
5.30000000e+01	1.65614626e+05
5.40000000e+01	1.68776630e+05
5.50000000e+01	1.71941969e+05
5.60000000e+01	1.75109785e+05
5.70000000e+01	1.78279467e+05
5.80000000e+01	1.81452519e+05
5.90000000e+01	1.84628607e+05
6.00000000e+01	1.87806293e+05
6.10000000e+01	1.90988284e+05
6.20000000e+01	1.94172952e+05
6.30000000e+01	1.97359913e+05
6.40000000e+01	2.00551099e+05
6.50000000e+01	2.03745363e+05
6.60000000e+01	2.06942637e+05
6.70000000e+01	2.10143435e+05
6.80000000e+01	2.13348533e+05
6.90000000e+01	2.16556782e+05
7.00000000e+01	2.19768188e+05
7.10000000e+01	2.22984771e+05
7.20000000e+01	2.26205065e+05
7.30000000e+01	2.29428397e+05
7.40000000e+01	2.32656952e+05
7.50000000e+01	2.35890068e+05
7.60000000e+01	2.39127059e+05
7.70000000e+01	2.42368179e+05
7.80000000e+01	2.45615054e+05
7.90000000e+01	2.48866611e+05
8.00000000e+01	2.52122177e+05
8.10000000e+01	2.55383404e+05
8.20000000e+01	2.58649973e+05
8.30000000e+01	2.61921985e+05
8.40000000e+01	2.65198627e+05
8.50000000e+01	2.68481555e+05
8.60000000e+01	2.71770306e+05
8.70000000e+01	2.75064554e+05
8.80000000e+01	2.78364517e+05
8.90000000e+01	2.81671321e+05
9.00000000e+01	2.84984742e+05
9.10000000e+01	2.88303107e+05
9.20000000e+01	2.91629137e+05
9.30000000e+01	2.94961994e+05
9.40000000e+01	2.98301828e+05
9.50000000e+01	3.01647800e+05
9.60000000e+01	3.05001941e+05
9.70000000e+01	3.08363104e+05
9.80000000e+01	3.11732290e+05
9.90000000e+01	3.15108184e+05
1.00000000e+02	3.18491375e+05
1.01000000e+02	3.21885188e+05
1.02000000e+02	3.25286312e+05
1.03000000e+02	3.28695206e+05
1.04000000e+02	3.32112949e+05
1.05000000e+02	3.35539674e+05
1.06000000e+02	3.38975435e+05
1.07000000e+02	3.42420690e+05
1.08000000e+02	3.45873981e+05
1.09000000e+02	3.49338114e+05
1.10000000e+02	3.52811850e+05
1.11000000e+02	3.56295022e+05
1.12000000e+02	3.59789274e+05
1.13000000e+02	3.63292564e+05
1.14000000e+02	3.66807345e+05
1.15000000e+02	3.70332864e+05
1.16000000e+02	3.73869181e+05
1.17000000e+02	3.77417171e+05
1.18000000e+02	3.80975904e+05
1.19000000e+02	3.84546533e+05
1.20000000e+02	3.88129356e+05
1.21000000e+02	3.91724033e+05
1.22000000e+02	3.95331288e+05
1.23000000e+02	3.98950867e+05
1.24000000e+02	4.02583595e+05
1.25000000e+02	4.06228734e+05
1.26000000e+02	4.09887740e+05
1.27000000e+02	4.13560386e+05
1.28000000e+02	4.17246187e+05
1.29000000e+02	4.20946725e+05
1.30000000e+02	4.24661269e+05
1.31000000e+02	4.28390147e+05
1.32000000e+02	4.32134517e+05
1.33000000e+02	4.35892802e+05
1.34000000e+02	4.39667684e+05
1.35000000e+02	4.43457216e+05
1.36000000e+02	4.47263321e+05
1.37000000e+02	4.51085066e+05
1.38000000e+02	4.54923648e+05
1.39000000e+02	4.58778427e+05
1.40000000e+02	4.62650521e+05
1.41000000e+02	4.66539812e+05
1.42000000e+02	4.70446539e+05
1.43000000e+02	4.74371097e+05
1.44000000e+02	4.78313613e+05
1.45000000e+02	4.82274845e+05
1.46000000e+02	4.86250747e+05
1.47000000e+02	4.90250706e+05
1.48000000e+02	4.94269054e+05
1.49000000e+02	4.98307161e+05
1.50000000e+02	5.02365210e+05
1.51000000e+02	5.06443053e+05
1.52000000e+02	5.10542288e+05
1.53000000e+02	5.14662047e+05
1.54000000e+02	5.18803205e+05
1.55000000e+02	5.22966067e+05
1.56000000e+02	5.27150747e+05
1.57000000e+02	5.31357885e+05
1.58000000e+02	5.35587624e+05
1.59000000e+02	5.39840335e+05
1.60000000e+02	5.44116551e+05
1.61000000e+02	5.48416202e+05
1.62000000e+02	5.52739946e+05
1.63000000e+02	5.57088255e+05
1.64000000e+02	5.61461424e+05
1.65000000e+02	5.65859424e+05
1.66000000e+02	5.70283152e+05
1.67000000e+02	5.74733014e+05
1.68000000e+02	5.79208531e+05
1.69000000e+02	5.83711405e+05
1.70000000e+02	5.88240748e+05
1.71000000e+02	5.92798182e+05
1.72000000e+02	5.97382814e+05
1.73000000e+02	6.01996284e+05
1.74000000e+02	6.06637872e+05
1.75000000e+02	6.11308891e+05
1.76000000e+02	6.16009314e+05
1.77000000e+02	6.20739557e+05
1.78000000e+02	6.25500318e+05
1.79000000e+02	6.30291652e+05
1.80000000e+02	6.35114274e+05
1.81000000e+02	6.39968660e+05
1.82000000e+02	6.44853628e+05
1.83000000e+02	6.49772856e+05
1.84000000e+02	6.54725655e+05
1.85000000e+02	6.59711101e+05
1.86000000e+02	6.64730167e+05
1.87000000e+02	6.69783788e+05
1.88000000e+02	6.74872113e+05
1.89000000e+02	6.79995907e+05
1.90000000e+02	6.85155410e+05
1.91000000e+02	6.90351144e+05
1.92000000e+02	6.95583829e+05
1.93000000e+02	7.00853710e+05
1.94000000e+02	7.06161334e+05
1.95000000e+02	7.11507260e+05
1.96000000e+02	7.16892066e+05
1.97000000e+02	7.22316199e+05
1.98000000e+02	7.27780110e+05
1.99000000e+02	7.33284566e+05
2.00000000e+02	7.38829702e+05
2.01000000e+02	7.44416698e+05
2.02000000e+02	7.50045389e+05
2.03000000e+02	7.55716831e+05
2.04000000e+02	7.61431282e+05
2.05000000e+02	7.67189637e+05
2.06000000e+02	7.72992311e+05
2.07000000e+02	7.78839668e+05
2.08000000e+02	7.84732744e+05
2.09000000e+02	7.90671693e+05
2.10000000e+02	7.96657511e+05
2.11000000e+02	8.02690528e+05
2.12000000e+02	8.08771422e+05
2.13000000e+02	8.14900455e+05
2.14000000e+02	8.21079719e+05
2.15000000e+02	8.27308341e+05
2.16000000e+02	8.33587175e+05
2.17000000e+02	8.39917304e+05
2.18000000e+02	8.46299186e+05
2.19000000e+02	8.52733480e+05
2.20000000e+02	8.59220745e+05
2.21000000e+02	8.65762030e+05
2.22000000e+02	8.72357780e+05
2.23000000e+02	8.79008690e+05
2.24000000e+02	8.85715446e+05
2.25000000e+02	8.92478985e+05
2.26000000e+02	8.99299721e+05
2.27000000e+02	9.06178578e+05
2.28000000e+02	9.13116375e+05
2.29000000e+02	9.20113639e+05
2.30000000e+02	9.27171336e+05
2.31000000e+02	9.34290056e+05
2.32000000e+02	9.41470786e+05
2.33000000e+02	9.48714109e+05
2.34000000e+02	9.56020955e+05
2.35000000e+02	9.63392224e+05
2.36000000e+02	9.70828380e+05
2.37000000e+02	9.78330590e+05
2.38000000e+02	9.85899554e+05
2.39000000e+02	9.93535918e+05
2.40000000e+02	1.00124094e+06
2.41000000e+02	1.00901523e+06
2.42000000e+02	1.01685962e+06
2.43000000e+02	1.02477518e+06
2.44000000e+02	1.03276267e+06
2.45000000e+02	1.04082301e+06
2.46000000e+02	1.04895718e+06
2.47000000e+02	1.05716599e+06
2.48000000e+02	1.06545049e+06
2.49000000e+02	1.07381156e+06
2.50000000e+02	1.08225015e+06
2.51000000e+02	1.09076727e+06
2.52000000e+02	1.09936381e+06
2.53000000e+02	1.10804091e+06
2.54000000e+02	1.11679946e+06
2.55000000e+02	1.12564050e+06
2.56000000e+02	1.13456502e+06
2.57000000e+02	1.14357408e+06
2.58000000e+02	1.15266880e+06
2.59000000e+02	1.16185011e+06
2.60000000e+02	1.17111912e+06
2.61000000e+02	1.18047699e+06
2.62000000e+02	1.18992471e+06
2.63000000e+02	1.19946342e+06
2.64000000e+02	1.20909425e+06
2.65000000e+02	1.21881835e+06
2.66000000e+02	1.22863686e+06
2.67000000e+02	1.23855088e+06
2.68000000e+02	1.24856159e+06
2.69000000e+02	1.25867024e+06
2.70000000e+02	1.26887796e+06
2.71000000e+02	1.27918596e+06
2.72000000e+02	1.28959547e+06
2.73000000e+02	1.30010770e+06
2.74000000e+02	1.31072391e+06
2.75000000e+02	1.32144535e+06
2.76000000e+02	1.33227329e+06
2.77000000e+02	1.34320901e+06
2.78000000e+02	1.35425381e+06
2.79000000e+02	1.36540899e+06
2.80000000e+02	1.37667588e+06
2.81000000e+02	1.38805581e+06
2.82000000e+02	1.39955013e+06
2.83000000e+02	1.41116020e+06
2.84000000e+02	1.42288740e+06
2.85000000e+02	1.43473311e+06
2.86000000e+02	1.44669874e+06
2.87000000e+02	1.45878570e+06
2.88000000e+02	1.47099543e+06
2.89000000e+02	1.48332935e+06
2.90000000e+02	1.49578894e+06
2.91000000e+02	1.50837566e+06
2.92000000e+02	1.52109098e+06
2.93000000e+02	1.53393642e+06
2.94000000e+02	1.54691347e+06
2.95000000e+02	1.56002366e+06
2.96000000e+02	1.57326853e+06
2.97000000e+02	1.58664963e+06
2.98000000e+02	1.60016851e+06
2.99000000e+02	1.61382676e+06
3.00000000e+02	1.62762596e+06
3.01000000e+02	1.64156772e+06
3.02000000e+02	1.65565365e+06
3.03000000e+02	1.66988539e+06
3.04000000e+02	1.68426456e+06
3.05000000e+02	1.69879283e+06
3.06000000e+02	1.71347185e+06
3.07000000e+02	1.72830332e+06
3.08000000e+02	1.74328892e+06
3.09000000e+02	1.75843035e+06
3.10000000e+02	1.77372933e+06
3.11000000e+02	1.78918758e+06
3.12000000e+02	1.80480684e+06
3.13000000e+02	1.82058887e+06
3.14000000e+02	1.83653542e+06
3.15000000e+02	1.85264826e+06
3.16000000e+02	1.86892918e+06
3.17000000e+02	1.88537996e+06
3.18000000e+02	1.90200242e+06
3.19000000e+02	1.91879836e+06
3.20000000e+02	1.93576961e+06
3.21000000e+02	1.95291800e+06
3.22000000e+02	1.97024537e+06
3.23000000e+02	1.98775357e+06
3.24000000e+02	2.00544445e+06
3.25000000e+02	2.02331988e+06
3.26000000e+02	2.04138174e+06
3.27000000e+02	2.05963190e+06
3.28000000e+02	2.07807225e+06
3.29000000e+02	2.09670469e+06
3.30000000e+02	2.11553111e+06
3.31000000e+02	2.13455342e+06
3.32000000e+02	2.15377352e+06
3.33000000e+02	2.17319334e+06
3.34000000e+02	2.19281478e+06
3.35000000e+02	2.21263977e+06
3.36000000e+02	2.23267022e+06
3.37000000e+02	2.25290808e+06
3.38000000e+02	2.27335525e+06
3.39000000e+02	2.29401368e+06
3.40000000e+02	2.31488529e+06
3.41000000e+02	2.33597199e+06
3.42000000e+02	2.35727573e+06
3.43000000e+02	2.37879843e+06
3.44000000e+02	2.40054200e+06
3.45000000e+02	2.42250836e+06
3.46000000e+02	2.44469944e+06
3.47000000e+02	2.46711713e+06
3.48000000e+02	2.48976334e+06
3.49000000e+02	2.51263997e+06
3.50000000e+02	2.53574892e+06
3.51000000e+02	2.55909205e+06
3.52000000e+02	2.58267124e+06
3.53000000e+02	2.60648836e+06
3.54000000e+02	2.63054526e+06
3.55000000e+02	2.65484376e+06
3.56000000e+02	2.67938571e+06
3.57000000e+02	2.70417292e+06
3.58000000e+02	2.72920717e+06
3.59000000e+02	2.75449026e+06
3.60000000e+02	2.78002394e+06
3.61000000e+02	2.80580996e+06
3.62000000e+02	2.83185005e+06
3.63000000e+02	2.85814592e+06
3.64000000e+02	2.88469924e+06
3.65000000e+02	2.91151168e+06
3.66000000e+02	2.93858488e+06
3.67000000e+02	2.96592046e+06
3.68000000e+02	2.99351999e+06
3.69000000e+02	3.02138503e+06
3.70000000e+02	3.04951712e+06
3.71000000e+02	3.07791776e+06
3.72000000e+02	3.10658842e+06
3.73000000e+02	3.13553052e+06
3.74000000e+02	3.16474548e+06
3.75000000e+02	3.19423466e+06
3.76000000e+02	3.22399939e+06
3.77000000e+02	3.25404096e+06
3.78000000e+02	3.28436063e+06
3.79000000e+02	3.31495961e+06
3.80000000e+02	3.34583907e+06
3.81000000e+02	3.37700014e+06
3.82000000e+02	3.40844391e+06
3.83000000e+02	3.44017140e+06
3.84000000e+02	3.47218361e+06
3.85000000e+02	3.50448149e+06
3.86000000e+02	3.53706591e+06
3.87000000e+02	3.56993773e+06
3.88000000e+02	3.60309772e+06
3.89000000e+02	3.63654663e+06
3.90000000e+02	3.67028511e+06
3.91000000e+02	3.70431381e+06
3.92000000e+02	3.73863326e+06
3.93000000e+02	3.77324399e+06
3.94000000e+02	3.80814642e+06
3.95000000e+02	3.84334093e+06
3.96000000e+02	3.87882784e+06
3.97000000e+02	3.91460739e+06
3.98000000e+02	3.95067977e+06
3.99000000e+02	3.98704508e+06
4.00000000e+02	4.02370337e+06
4.01000000e+02	4.06065462e+06
4.02000000e+02	4.09789872e+06
4.03000000e+02	4.13543550e+06
4.04000000e+02	4.17326471e+06
4.05000000e+02	4.21138603e+06
4.06000000e+02	4.24979906e+06
4.07000000e+02	4.28850331e+06
4.08000000e+02	4.32749823e+06
4.09000000e+02	4.36678317e+06
4.10000000e+02	4.40635740e+06
4.11000000e+02	4.44622012e+06
4.12000000e+02	4.48637043e+06
4.13000000e+02	4.52680734e+06
4.14000000e+02	4.56752979e+06
4.15000000e+02	4.60853660e+06
4.16000000e+02	4.64982652e+06
4.17000000e+02	4.69139821e+06
4.18000000e+02	4.73325022e+06
4.19000000e+02	4.77538101e+06
4.20000000e+02	4.81778894e+06
4.21000000e+02	4.86047226e+06
4.22000000e+02	4.90342914e+06
4.23000000e+02	4.94665763e+06
4.24000000e+02	4.99015567e+06
4.25000000e+02	5.03392110e+06
4.26000000e+02	5.07795164e+06
4.27000000e+02	5.12224491e+06
4.28000000e+02	5.16679839e+06
4.29000000e+02	5.21160946e+06
4.30000000e+02	5.25667538e+06
4.31000000e+02	5.30199327e+06
4.32000000e+02	5.34756011e+06
4.33000000e+02	5.39337279e+06
4.34000000e+02	5.43942802e+06
4.35000000e+02	5.48572238e+06
4.36000000e+02	5.53225232e+06
4.37000000e+02	5.57901411e+06
4.38000000e+02	5.62600390e+06
4.39000000e+02	5.67321764e+06
4.40000000e+02	5.72065115e+06
4.41000000e+02	5.76830004e+06
4.42000000e+02	5.81615977e+06
4.43000000e+02	5.86422559e+06
4.44000000e+02	5.91249256e+06
4.45000000e+02	5.96095555e+06
4.46000000e+02	6.00960919e+06
4.47000000e+02	6.05844791e+06
4.48000000e+02	6.10746590e+06
4.49000000e+02	6.15665712e+06
4.50000000e+02	6.20601524e+06
4.51000000e+02	6.25553371e+06
4.52000000e+02	6.30520568e+06
4.53000000e+02	6.35502399e+06
4.54000000e+02	6.40498121e+06
4.55000000e+02	6.45506957e+06
4.56000000e+02	6.50528096e+06
4.57000000e+02	6.55560692e+06
4.58000000e+02	6.60603862e+06
4.59000000e+02	6.65656685e+06
4.60000000e+02	6.70718198e+06
4.61000000e+02	6.75787395e+06
4.62000000e+02	6.80863227e+06
4.63000000e+02	6.85944595e+06
4.64000000e+02	6.91030352e+06
4.65000000e+02	6.96119299e+06
4.66000000e+02	7.01210183e+06
4.67000000e+02	7.06301693e+06
4.68000000e+02	7.11392459e+06
4.69000000e+02	7.16481047e+06
4.70000000e+02	7.21565960e+06
4.71000000e+02	7.26645630e+06
4.72000000e+02	7.31718418e+06
4.73000000e+02	7.36782613e+06
4.74000000e+02	7.41836421e+06
4.75000000e+02	7.46877971e+06
4.76000000e+02	7.51905305e+06
4.77000000e+02	7.56916378e+06
4.78000000e+02	7.61909050e+06
4.79000000e+02	7.66881090e+06
4.80000000e+02	7.71830165e+06
4.81000000e+02	7.76753840e+06
4.82000000e+02	7.81649574e+06
4.83000000e+02	7.86514716e+06
4.84000000e+02	7.91346501e+06
4.85000000e+02	7.96142046e+06
4.86000000e+02	8.00898349e+06
4.87000000e+02	8.05612283e+06
4.88000000e+02	8.10280594e+06
4.89000000e+02	8.14899898e+06
4.90000000e+02	8.19466675e+06
4.91000000e+02	8.23977271e+06
4.92000000e+02	8.28427894e+06
4.93000000e+02	8.32814610e+06
4.94000000e+02	8.37133343e+06
4.95000000e+02	8.41379871e+06
4.96000000e+02	8.45549831e+06
4.97000000e+02	8.49638709e+06
4.98000000e+02	8.53641851e+06
4.99000000e+02	8.57554454e+06
5.00000000e+02	8.61371573e+06
5.01000000e+02	8.65088122e+06
5.02000000e+02	8.68698875e+06
5.03000000e+02	8.72198471e+06
5.04000000e+02	8.75581419e+06
5.05000000e+02	8.78842103e+06
5.06000000e+02	8.81974786e+06
5.07000000e+02	8.84973625e+06
5.08000000e+02	8.87832670e+06
5.09000000e+02	8.90545882e+06
5.10000000e+02	8.93107141e+06
5.11000000e+02	8.95510259e+06
5.12000000e+02	8.97748994e+06
5.13000000e+02	8.99817067e+06
5.14000000e+02	9.01708175e+06
5.15000000e+02	9.03416015e+06
5.16000000e+02	9.04934299e+06
5.17000000e+02	9.06256778e+06
5.18000000e+02	9.07377263e+06
5.19000000e+02	9.08289651e+06
5.20000000e+02	9.08987948e+06
5.21000000e+02	9.09466297e+06
5.22000000e+02	9.09719006e+06
5.23000000e+02	9.09740576e+06
5.24000000e+02	9.09525729e+06
5.25000000e+02	9.09069444e+06
5.26000000e+02	9.08366978e+06
5.27000000e+02	9.07413908e+06
5.28000000e+02	9.06206151e+06
5.29000000e+02	9.04740006e+06
5.30000000e+02	9.03012174e+06
5.31000000e+02	9.01019795e+06
5.32000000e+02	8.98760471e+06
5.33000000e+02	8.96232298e+06
5.34000000e+02	8.93433887e+06
5.35000000e+02	8.90364390e+06
5.36000000e+02	8.87023520e+06
5.37000000e+02	8.83411571e+06
5.38000000e+02	8.79529428e+06
5.39000000e+02	8.75378587e+06
5.40000000e+02	8.70961158e+06
5.41000000e+02	8.66279873e+06
5.42000000e+02	8.61338087e+06
5.43000000e+02	8.56139772e+06
5.44000000e+02	8.50689517e+06
5.45000000e+02	8.44992513e+06
5.46000000e+02	8.39054538e+06
5.47000000e+02	8.32881938e+06
5.48000000e+02	8.26481611e+06
5.49000000e+02	8.19860969e+06
5.50000000e+02	8.13027919e+06
5.51000000e+02	8.05990824e+06
5.52000000e+02	7.98758468e+06
5.53000000e+02	7.91340019e+06
5.54000000e+02	7.83744985e+06
5.55000000e+02	7.75983174e+06
5.56000000e+02	7.68064648e+06
5.57000000e+02	7.59999678e+06
5.58000000e+02	7.51798700e+06
5.59000000e+02	7.43472265e+06
5.60000000e+02	7.35030995e+06
5.61000000e+02	7.26485539e+06
5.62000000e+02	7.17846529e+06
5.63000000e+02	7.09124535e+06
5.64000000e+02	7.00330025e+06
5.65000000e+02	6.91473326e+06
5.66000000e+02	6.82564588e+06
5.67000000e+02	6.73613752e+06
5.68000000e+02	6.64630513e+06
5.69000000e+02	6.55624295e+06
5.70000000e+02	6.46604228e+06
5.71000000e+02	6.37579119e+06
5.72000000e+02	6.28557439e+06
5.73000000e+02	6.19547301e+06
5.74000000e+02	6.10556452e+06
5.75000000e+02	6.01592257e+06
5.76000000e+02	5.92661694e+06
5.77000000e+02	5.83771348e+06
5.78000000e+02	5.74927411e+06
5.79000000e+02	5.66135676e+06
5.80000000e+02	5.57401545e+06
5.81000000e+02	5.48730028e+06
5.82000000e+02	5.40125752e+06
5.83000000e+02	5.31592967e+06
5.84000000e+02	5.23135556e+06
5.85000000e+02	5.14757042e+06
5.86000000e+02	5.06460603e+06
5.87000000e+02	4.98249083e+06
5.88000000e+02	4.90125002e+06
5.89000000e+02	4.82090574e+06
5.90000000e+02	4.74147717e+06
5.91000000e+02	4.66298070e+06
5.92000000e+02	4.58543005e+06
5.93000000e+02	4.50883643e+06
5.94000000e+02	4.43320870e+06
5.95000000e+02	4.35855346e+06
5.96000000e+02	4.28487525e+06
5.97000000e+02	4.21217667e+06
5.98000000e+02	4.14045847e+06
5.99000000e+02	4.06971978e+06
6.00000000e+02	3.99995812e+06
6.01000000e+02	3.93116962e+06
6.02000000e+02	3.86334909e+06
6.03000000e+02	3.79649012e+06
6.04000000e+02	3.73058522e+06
6.05000000e+02	3.66562593e+06
6.06000000e+02	3.60160284e+06
6.07000000e+02	3.53850581e+06
6.08000000e+02	3.47632391e+06
6.09000000e+02	3.41504562e+06
6.10000000e+02	3.35465884e+06
6.11000000e+02	3.29515099e+06
6.12000000e+02	3.23650905e+06
6.13000000e+02	3.17871966e+06
6.14000000e+02	3.12176912e+06
6.15000000e+02	3.06564352e+06
6.16000000e+02	3.01032869e+06
6.17000000e+02	2.95581035e+06
6.18000000e+02	2.90207407e+06
6.19000000e+02	2.84910533e+06
6.20000000e+02	2.79688958e+06
6.21000000e+02	2.74541225e+06
6.22000000e+02	2.69465875e+06
6.23000000e+02	2.64461454e+06
6.24000000e+02	2.59526516e+06
6.25000000e+02	2.54659617e+06
6.26000000e+02	2.49859326e+06
6.27000000e+02	2.45124222e+06
6.28000000e+02	2.40452896e+06
6.29000000e+02	2.35843953e+06
6.30000000e+02	2.31296010e+06
6.31000000e+02	2.26807702e+06
6.32000000e+02	2.22377680e+06
6.33000000e+02	2.18004610e+06
6.34000000e+02	2.13687175e+06
6.35000000e+02	2.09424079e+06
6.36000000e+02	2.05214038e+06
6.37000000e+02	2.01055793e+06
6.38000000e+02	1.96948096e+06
6.39000000e+02	1.92889725e+06
6.40000000e+02	1.88879470e+06
6.41000000e+02	1.84916143e+06
6.42000000e+02	1.80998573e+06
6.43000000e+02	1.77125608e+06
6.44000000e+02	1.73296113e+06
6.45000000e+02	1.69508971e+06
6.46000000e+02	1.65763084e+06
6.47000000e+02	1.62057371e+06
6.48000000e+02	1.58390768e+06
6.49000000e+02	1.54762227e+06
6.50000000e+02	1.51170718e+06
6.51000000e+02	1.47615227e+06
6.52000000e+02	1.44094756e+06
6.53000000e+02	1.40608324e+06
6.54000000e+02	1.37154965e+06
6.55000000e+02	1.33733725e+06
6.56000000e+02	1.30343671e+06
6.57000000e+02	1.26983879e+06
6.58000000e+02	1.23653443e+06
6.59000000e+02	1.20351467e+06
