# Profil de ElecX au temps 1.100000000000014e-11 
# simu : /Volumes/MERCURE/JOBS/Zeq2_tanh_50mic_1p5e20_B0_20ps/GNU/ElecX@y-c.set
# col 0 : abscisse (um)
# col 1 : ElecX (V/m)
0.00000000e+00	0.00000000e+00
1.00000000e+00	2.17927857e+03
2.00000000e+00	1.48606043e+03
3.00000000e+00	2.39059423e+03
4.00000000e+00	3.84886184e+03
5.00000000e+00	4.72588393e+03
6.00000000e+00	5.66084084e+03
7.00000000e+00	6.60860713e+03
8.00000000e+00	7.56046451e+03
9.00000000e+00	8.51572964e+03
1.00000000e+01	9.47466298e+03
1.10000000e+01	1.04376478e+04
1.20000000e+01	1.14051497e+04
1.30000000e+01	1.23774339e+04
1.40000000e+01	1.33550146e+04
1.50000000e+01	1.43383177e+04
1.60000000e+01	1.53276908e+04
1.70000000e+01	1.63234416e+04
1.80000000e+01	1.73262149e+04
1.90000000e+01	1.83361658e+04
2.00000000e+01	1.93537998e+04
2.10000000e+01	2.03795922e+04
2.20000000e+01	2.14136826e+04
2.30000000e+01	2.24568677e+04
2.40000000e+01	2.35090258e+04
2.50000000e+01	2.45711121e+04
2.60000000e+01	2.56429715e+04
2.70000000e+01	2.67255220e+04
2.80000000e+01	2.78185965e+04
2.90000000e+01	2.89231387e+04
3.00000000e+01	3.00390462e+04
3.10000000e+01	3.11670659e+04
3.20000000e+01	3.23073327e+04
3.30000000e+01	3.34603713e+04
3.40000000e+01	3.46265131e+04
3.50000000e+01	3.58060640e+04
3.60000000e+01	3.69995714e+04
3.70000000e+01	3.82071717e+04
3.80000000e+01	3.94294386e+04
3.90000000e+01	4.06666673e+04
4.00000000e+01	4.19191116e+04
4.10000000e+01	4.31873781e+04
4.20000000e+01	4.44715522e+04
4.30000000e+01	4.57721761e+04
4.40000000e+01	4.70896016e+04
4.50000000e+01	4.84239905e+04
4.60000000e+01	4.97759528e+04
4.70000000e+01	5.11456871e+04
4.80000000e+01	5.25334798e+04
4.90000000e+01	5.39398513e+04
5.00000000e+01	5.53650120e+04
5.10000000e+01	5.68092680e+04
5.20000000e+01	5.82730820e+04
5.30000000e+01	5.97566937e+04
5.40000000e+01	6.12603858e+04
5.50000000e+01	6.27846043e+04
5.60000000e+01	6.43295986e+04
5.70000000e+01	6.58956198e+04
5.80000000e+01	6.74831152e+04
5.90000000e+01	6.90923289e+04
6.00000000e+01	7.07234915e+04
6.10000000e+01	7.23770382e+04
6.20000000e+01	7.40530969e+04
6.30000000e+01	7.57520865e+04
6.40000000e+01	7.74743375e+04
6.50000000e+01	7.92200957e+04
6.60000000e+01	8.09896052e+04
6.70000000e+01	8.27831670e+04
6.80000000e+01	8.46010763e+04
6.90000000e+01	8.64435779e+04
7.00000000e+01	8.83109120e+04
7.10000000e+01	9.02034061e+04
7.20000000e+01	9.21212805e+04
7.30000000e+01	9.40647666e+04
7.40000000e+01	9.60341593e+04
7.50000000e+01	9.80296854e+04
7.60000000e+01	1.00051578e+05
7.70000000e+01	1.02100073e+05
7.80000000e+01	1.04175422e+05
7.90000000e+01	1.06277836e+05
8.00000000e+01	1.08407550e+05
8.10000000e+01	1.10564653e+05
8.20000000e+01	1.12749289e+05
8.30000000e+01	1.14962079e+05
8.40000000e+01	1.17203063e+05
8.50000000e+01	1.19472413e+05
8.60000000e+01	1.21770313e+05
8.70000000e+01	1.24096946e+05
8.80000000e+01	1.26452497e+05
8.90000000e+01	1.28837147e+05
9.00000000e+01	1.31251072e+05
9.10000000e+01	1.33694444e+05
9.20000000e+01	1.36167431e+05
9.30000000e+01	1.38670194e+05
9.40000000e+01	1.41202893e+05
9.50000000e+01	1.43765681e+05
9.60000000e+01	1.46358705e+05
9.70000000e+01	1.48982111e+05
9.80000000e+01	1.51636036e+05
9.90000000e+01	1.54320617e+05
1.00000000e+02	1.57035982e+05
1.01000000e+02	1.59782257e+05
1.02000000e+02	1.62559562e+05
1.03000000e+02	1.65368014e+05
1.04000000e+02	1.68207724e+05
1.05000000e+02	1.71078798e+05
1.06000000e+02	1.73981340e+05
1.07000000e+02	1.76915448e+05
1.08000000e+02	1.79881214e+05
1.09000000e+02	1.82878729e+05
1.10000000e+02	1.85908078e+05
1.11000000e+02	1.88969340e+05
1.12000000e+02	1.92062594e+05
1.13000000e+02	1.95187910e+05
1.14000000e+02	1.98345358e+05
1.15000000e+02	2.01535001e+05
1.16000000e+02	2.04756901e+05
1.17000000e+02	2.08011114e+05
1.18000000e+02	2.11297692e+05
1.19000000e+02	2.14616685e+05
1.20000000e+02	2.17968138e+05
1.21000000e+02	2.21352093e+05
1.22000000e+02	2.24768588e+05
1.23000000e+02	2.28217658e+05
1.24000000e+02	2.31699336e+05
1.25000000e+02	2.35213650e+05
1.26000000e+02	2.38760624e+05
1.27000000e+02	2.42340283e+05
1.28000000e+02	2.45952645e+05
1.29000000e+02	2.49597728e+05
1.30000000e+02	2.53275546e+05
1.31000000e+02	2.56986110e+05
1.32000000e+02	2.60729430e+05
1.33000000e+02	2.64505513e+05
1.34000000e+02	2.68314364e+05
1.35000000e+02	2.72155985e+05
1.36000000e+02	2.76030378e+05
1.37000000e+02	2.79937542e+05
1.38000000e+02	2.83877473e+05
1.39000000e+02	2.87850169e+05
1.40000000e+02	2.91855624e+05
1.41000000e+02	2.95893831e+05
1.42000000e+02	2.99964782e+05
1.43000000e+02	3.04068469e+05
1.44000000e+02	3.08204882e+05
1.45000000e+02	3.12374012e+05
1.46000000e+02	3.16575848e+05
1.47000000e+02	3.20810379e+05
1.48000000e+02	3.25077594e+05
1.49000000e+02	3.29377483e+05
1.50000000e+02	3.33710034e+05
1.51000000e+02	3.38075238e+05
1.52000000e+02	3.42473084e+05
1.53000000e+02	3.46903563e+05
1.54000000e+02	3.51366668e+05
1.55000000e+02	3.55862391e+05
1.56000000e+02	3.60390726e+05
1.57000000e+02	3.64951668e+05
1.58000000e+02	3.69545216e+05
1.59000000e+02	3.74171367e+05
1.60000000e+02	3.78830122e+05
1.61000000e+02	3.83521486e+05
1.62000000e+02	3.88245463e+05
1.63000000e+02	3.93002062e+05
1.64000000e+02	3.97791293e+05
1.65000000e+02	4.02613171e+05
1.66000000e+02	4.07467712e+05
1.67000000e+02	4.12354937e+05
1.68000000e+02	4.17274869e+05
1.69000000e+02	4.22227539e+05
1.70000000e+02	4.27212975e+05
1.71000000e+02	4.32231217e+05
1.72000000e+02	4.37282303e+05
1.73000000e+02	4.42366279e+05
1.74000000e+02	4.47483195e+05
1.75000000e+02	4.52633108e+05
1.76000000e+02	4.57816077e+05
1.77000000e+02	4.63032170e+05
1.78000000e+02	4.68281457e+05
1.79000000e+02	4.73564018e+05
1.80000000e+02	4.78879937e+05
1.81000000e+02	4.84229305e+05
1.82000000e+02	4.89612219e+05
1.83000000e+02	4.95028785e+05
1.84000000e+02	5.00479115e+05
1.85000000e+02	5.05963328e+05
1.86000000e+02	5.11481552e+05
1.87000000e+02	5.17033921e+05
1.88000000e+02	5.22620580e+05
1.89000000e+02	5.28241680e+05
1.90000000e+02	5.33897383e+05
1.91000000e+02	5.39587858e+05
1.92000000e+02	5.45313285e+05
1.93000000e+02	5.51073851e+05
1.94000000e+02	5.56869757e+05
1.95000000e+02	5.62701211e+05
1.96000000e+02	5.68568432e+05
1.97000000e+02	5.74471649e+05
1.98000000e+02	5.80411104e+05
1.99000000e+02	5.86387049e+05
2.00000000e+02	5.92399747e+05
2.01000000e+02	5.98449475e+05
2.02000000e+02	6.04536519e+05
2.03000000e+02	6.10661179e+05
2.04000000e+02	6.16823770e+05
2.05000000e+02	6.23024616e+05
2.06000000e+02	6.29264057e+05
2.07000000e+02	6.35542446e+05
2.08000000e+02	6.41860150e+05
2.09000000e+02	6.48217551e+05
2.10000000e+02	6.54615044e+05
2.11000000e+02	6.61053041e+05
2.12000000e+02	6.67531969e+05
2.13000000e+02	6.74052269e+05
2.14000000e+02	6.80614400e+05
2.15000000e+02	6.87218836e+05
2.16000000e+02	6.93866069e+05
2.17000000e+02	7.00556608e+05
2.18000000e+02	7.07290979e+05
2.19000000e+02	7.14069725e+05
2.20000000e+02	7.20893409e+05
2.21000000e+02	7.27762611e+05
2.22000000e+02	7.34677932e+05
2.23000000e+02	7.41639990e+05
2.24000000e+02	7.48649425e+05
2.25000000e+02	7.55706896e+05
2.26000000e+02	7.62813082e+05
2.27000000e+02	7.69968685e+05
2.28000000e+02	7.77174426e+05
2.29000000e+02	7.84431050e+05
2.30000000e+02	7.91739322e+05
2.31000000e+02	7.99100032e+05
2.32000000e+02	8.06513992e+05
2.33000000e+02	8.13982038e+05
2.34000000e+02	8.21505028e+05
2.35000000e+02	8.29083846e+05
2.36000000e+02	8.36719402e+05
2.37000000e+02	8.44412630e+05
2.38000000e+02	8.52164489e+05
2.39000000e+02	8.59975964e+05
2.40000000e+02	8.67848070e+05
2.41000000e+02	8.75781844e+05
2.42000000e+02	8.83778355e+05
2.43000000e+02	8.91838698e+05
2.44000000e+02	8.99963996e+05
2.45000000e+02	9.08155401e+05
2.46000000e+02	9.16414096e+05
2.47000000e+02	9.24741293e+05
2.48000000e+02	9.33138232e+05
2.49000000e+02	9.41606188e+05
2.50000000e+02	9.50146464e+05
2.51000000e+02	9.58760396e+05
2.52000000e+02	9.67449351e+05
2.53000000e+02	9.76214729e+05
2.54000000e+02	9.85057966e+05
2.55000000e+02	9.93980526e+05
2.56000000e+02	1.00298391e+06
2.57000000e+02	1.01206966e+06
2.58000000e+02	1.02123933e+06
2.59000000e+02	1.03049454e+06
2.60000000e+02	1.03983693e+06
2.61000000e+02	1.04926817e+06
2.62000000e+02	1.05878997e+06
2.63000000e+02	1.06840410e+06
2.64000000e+02	1.07811233e+06
2.65000000e+02	1.08791649e+06
2.66000000e+02	1.09781844e+06
2.67000000e+02	1.10782009e+06
2.68000000e+02	1.11792338e+06
2.69000000e+02	1.12813029e+06
2.70000000e+02	1.13844284e+06
2.71000000e+02	1.14886309e+06
2.72000000e+02	1.15939314e+06
2.73000000e+02	1.17003513e+06
2.74000000e+02	1.18079125e+06
2.75000000e+02	1.19166371e+06
2.76000000e+02	1.20265479e+06
2.77000000e+02	1.21376679e+06
2.78000000e+02	1.22500206e+06
2.79000000e+02	1.23636300e+06
2.80000000e+02	1.24785204e+06
2.81000000e+02	1.25947165e+06
2.82000000e+02	1.27122437e+06
2.83000000e+02	1.28311276e+06
2.84000000e+02	1.29513942e+06
2.85000000e+02	1.30730702e+06
2.86000000e+02	1.31961824e+06
2.87000000e+02	1.33207584e+06
2.88000000e+02	1.34468260e+06
2.89000000e+02	1.35744135e+06
2.90000000e+02	1.37035497e+06
2.91000000e+02	1.38342639e+06
2.92000000e+02	1.39665857e+06
2.93000000e+02	1.41005452e+06
2.94000000e+02	1.42361731e+06
2.95000000e+02	1.43735005e+06
2.96000000e+02	1.45125587e+06
2.97000000e+02	1.46533799e+06
2.98000000e+02	1.47959964e+06
2.99000000e+02	1.49404412e+06
3.00000000e+02	1.50867477e+06
3.01000000e+02	1.52349495e+06
3.02000000e+02	1.53850812e+06
3.03000000e+02	1.55371773e+06
3.04000000e+02	1.56912731e+06
3.05000000e+02	1.58474044e+06
3.06000000e+02	1.60056073e+06
3.07000000e+02	1.61659183e+06
3.08000000e+02	1.63283746e+06
3.09000000e+02	1.64930137e+06
3.10000000e+02	1.66598737e+06
3.11000000e+02	1.68289929e+06
3.12000000e+02	1.70004104e+06
3.13000000e+02	1.71741656e+06
3.14000000e+02	1.73502982e+06
3.15000000e+02	1.75288487e+06
3.16000000e+02	1.77098577e+06
3.17000000e+02	1.78933666e+06
3.18000000e+02	1.80794169e+06
3.19000000e+02	1.82680509e+06
3.20000000e+02	1.84593111e+06
3.21000000e+02	1.86532405e+06
3.22000000e+02	1.88498826e+06
3.23000000e+02	1.90492813e+06
3.24000000e+02	1.92514810e+06
3.25000000e+02	1.94565264e+06
3.26000000e+02	1.96644627e+06
3.27000000e+02	1.98753356e+06
3.28000000e+02	2.00891910e+06
3.29000000e+02	2.03060756e+06
3.30000000e+02	2.05260360e+06
3.31000000e+02	2.07491196e+06
3.32000000e+02	2.09753741e+06
3.33000000e+02	2.12048474e+06
3.34000000e+02	2.14375880e+06
3.35000000e+02	2.16736447e+06
3.36000000e+02	2.19130665e+06
3.37000000e+02	2.21559031e+06
3.38000000e+02	2.24022042e+06
3.39000000e+02	2.26520200e+06
3.40000000e+02	2.29054010e+06
3.41000000e+02	2.31623980e+06
3.42000000e+02	2.34230620e+06
3.43000000e+02	2.36874443e+06
3.44000000e+02	2.39555967e+06
3.45000000e+02	2.42275709e+06
3.46000000e+02	2.45034190e+06
3.47000000e+02	2.47831933e+06
3.48000000e+02	2.50669463e+06
3.49000000e+02	2.53547307e+06
3.50000000e+02	2.56465992e+06
3.51000000e+02	2.59426048e+06
3.52000000e+02	2.62428005e+06
3.53000000e+02	2.65472394e+06
3.54000000e+02	2.68559747e+06
3.55000000e+02	2.71690596e+06
3.56000000e+02	2.74865473e+06
3.57000000e+02	2.78084909e+06
3.58000000e+02	2.81349436e+06
3.59000000e+02	2.84659583e+06
3.60000000e+02	2.88015879e+06
3.61000000e+02	2.91418851e+06
3.62000000e+02	2.94869025e+06
3.63000000e+02	2.98366923e+06
3.64000000e+02	3.01913065e+06
3.65000000e+02	3.05507968e+06
3.66000000e+02	3.09152146e+06
3.67000000e+02	3.12846106e+06
3.68000000e+02	3.16590354e+06
3.69000000e+02	3.20385390e+06
3.70000000e+02	3.24231708e+06
3.71000000e+02	3.28129795e+06
3.72000000e+02	3.32080134e+06
3.73000000e+02	3.36083198e+06
3.74000000e+02	3.40139456e+06
3.75000000e+02	3.44249366e+06
3.76000000e+02	3.48413378e+06
3.77000000e+02	3.52631933e+06
3.78000000e+02	3.56905461e+06
3.79000000e+02	3.61234383e+06
3.80000000e+02	3.65619108e+06
3.81000000e+02	3.70060033e+06
3.82000000e+02	3.74557542e+06
3.83000000e+02	3.79112007e+06
3.84000000e+02	3.83723785e+06
3.85000000e+02	3.88393218e+06
3.86000000e+02	3.93120634e+06
3.87000000e+02	3.97906343e+06
3.88000000e+02	4.02750640e+06
3.89000000e+02	4.07653801e+06
3.90000000e+02	4.12616085e+06
3.91000000e+02	4.17637729e+06
3.92000000e+02	4.22718954e+06
3.93000000e+02	4.27859957e+06
3.94000000e+02	4.33060914e+06
3.95000000e+02	4.38321979e+06
3.96000000e+02	4.43643284e+06
3.97000000e+02	4.49024936e+06
3.98000000e+02	4.54467016e+06
3.99000000e+02	4.59969580e+06
4.00000000e+02	4.65532660e+06
4.01000000e+02	4.71156256e+06
4.02000000e+02	4.76840345e+06
4.03000000e+02	4.82584872e+06
4.04000000e+02	4.88389752e+06
4.05000000e+02	4.94254872e+06
4.06000000e+02	5.00180086e+06
4.07000000e+02	5.06165215e+06
4.08000000e+02	5.12210049e+06
4.09000000e+02	5.18314344e+06
4.10000000e+02	5.24477822e+06
4.11000000e+02	5.30700168e+06
4.12000000e+02	5.36981033e+06
4.13000000e+02	5.43320031e+06
4.14000000e+02	5.49716738e+06
4.15000000e+02	5.56170694e+06
4.16000000e+02	5.62681398e+06
4.17000000e+02	5.69248312e+06
4.18000000e+02	5.75870855e+06
4.19000000e+02	5.82548408e+06
4.20000000e+02	5.89280311e+06
4.21000000e+02	5.96065859e+06
4.22000000e+02	6.02904308e+06
4.23000000e+02	6.09794870e+06
4.24000000e+02	6.16736711e+06
4.25000000e+02	6.23728955e+06
4.26000000e+02	6.30770680e+06
4.27000000e+02	6.37860920e+06
4.28000000e+02	6.44998660e+06
4.29000000e+02	6.52182840e+06
4.30000000e+02	6.59412352e+06
4.31000000e+02	6.66686040e+06
4.32000000e+02	6.74002697e+06
4.33000000e+02	6.81361068e+06
4.34000000e+02	6.88759847e+06
4.35000000e+02	6.96197676e+06
4.36000000e+02	7.03673145e+06
4.37000000e+02	7.11184788e+06
4.38000000e+02	7.18731086e+06
4.39000000e+02	7.26310464e+06
4.40000000e+02	7.33921290e+06
4.41000000e+02	7.41561870e+06
4.42000000e+02	7.49230453e+06
4.43000000e+02	7.56925224e+06
4.44000000e+02	7.64644303e+06
4.45000000e+02	7.72385745e+06
4.46000000e+02	7.80147535e+06
4.47000000e+02	7.87927589e+06
4.48000000e+02	7.95723746e+06
4.49000000e+02	8.03533770e+06
4.50000000e+02	8.11355346e+06
4.51000000e+02	8.19186074e+06
4.52000000e+02	8.27023467e+06
4.53000000e+02	8.34864948e+06
4.54000000e+02	8.42707845e+06
4.55000000e+02	8.50549385e+06
4.56000000e+02	8.58386691e+06
4.57000000e+02	8.66216778e+06
4.58000000e+02	8.74036543e+06
4.59000000e+02	8.81842765e+06
4.60000000e+02	8.89632096e+06
4.61000000e+02	8.97401053e+06
4.62000000e+02	9.05146015e+06
4.63000000e+02	9.12863217e+06
4.64000000e+02	9.20548735e+06
4.65000000e+02	9.28198491e+06
4.66000000e+02	9.35808233e+06
4.67000000e+02	9.43373538e+06
4.68000000e+02	9.50889795e+06
4.69000000e+02	9.58352207e+06
4.70000000e+02	9.65755772e+06
4.71000000e+02	9.73095286e+06
4.72000000e+02	9.80365329e+06
4.73000000e+02	9.87560256e+06
4.74000000e+02	9.94674197e+06
4.75000000e+02	1.00170104e+07
4.76000000e+02	1.00863445e+07
4.77000000e+02	1.01546780e+07
4.78000000e+02	1.02219427e+07
4.79000000e+02	1.02880673e+07
4.80000000e+02	1.03529781e+07
4.81000000e+02	1.04165990e+07
4.82000000e+02	1.04788508e+07
4.83000000e+02	1.05396520e+07
4.84000000e+02	1.05989184e+07
4.85000000e+02	1.06565633e+07
4.86000000e+02	1.07124975e+07
4.87000000e+02	1.07666293e+07
4.88000000e+02	1.08188647e+07
4.89000000e+02	1.08691076e+07
4.90000000e+02	1.09172599e+07
4.91000000e+02	1.09632215e+07
4.92000000e+02	1.10068911e+07
4.93000000e+02	1.10481655e+07
4.94000000e+02	1.10869409e+07
4.95000000e+02	1.11231126e+07
4.96000000e+02	1.11565755e+07
4.97000000e+02	1.11872244e+07
4.98000000e+02	1.12149548e+07
4.99000000e+02	1.12396629e+07
5.00000000e+02	1.12612464e+07
5.01000000e+02	1.12796048e+07
5.02000000e+02	1.12946403e+07
5.03000000e+02	1.13062579e+07
5.04000000e+02	1.13143666e+07
5.05000000e+02	1.13188793e+07
5.06000000e+02	1.13197143e+07
5.07000000e+02	1.13167953e+07
5.08000000e+02	1.13100523e+07
5.09000000e+02	1.12994221e+07
5.10000000e+02	1.12848494e+07
5.11000000e+02	1.12662869e+07
5.12000000e+02	1.12436961e+07
5.13000000e+02	1.12170480e+07
5.14000000e+02	1.11863234e+07
5.15000000e+02	1.11515137e+07
5.16000000e+02	1.11126208e+07
5.17000000e+02	1.10696581e+07
5.18000000e+02	1.10226501e+07
5.19000000e+02	1.09716331e+07
5.20000000e+02	1.09166551e+07
5.21000000e+02	1.08577758e+07
5.22000000e+02	1.07950667e+07
5.23000000e+02	1.07286106e+07
5.24000000e+02	1.06585017e+07
5.25000000e+02	1.05848449e+07
5.26000000e+02	1.05077555e+07
5.27000000e+02	1.04273588e+07
5.28000000e+02	1.03437891e+07
5.29000000e+02	1.02571892e+07
5.30000000e+02	1.01677099e+07
5.31000000e+02	1.00755084e+07
5.32000000e+02	9.98074825e+06
5.33000000e+02	9.88359789e+06
5.34000000e+02	9.78422989e+06
5.35000000e+02	9.68281990e+06
5.36000000e+02	9.57954576e+06
5.37000000e+02	9.47458644e+06
5.38000000e+02	9.36812115e+06
5.39000000e+02	9.26032838e+06
5.40000000e+02	9.15138502e+06
5.41000000e+02	9.04146554e+06
5.42000000e+02	8.93074113e+06
5.43000000e+02	8.81937906e+06
5.44000000e+02	8.70754194e+06
5.45000000e+02	8.59538715e+06
5.46000000e+02	8.48306630e+06
5.47000000e+02	8.37072477e+06
5.48000000e+02	8.25850132e+06
5.49000000e+02	8.14652778e+06
5.50000000e+02	8.03492881e+06
5.51000000e+02	7.92382168e+06
5.52000000e+02	7.81331620e+06
5.53000000e+02	7.70351462e+06
5.54000000e+02	7.59451167e+06
5.55000000e+02	7.48639457e+06
5.56000000e+02	7.37924315e+06
5.57000000e+02	7.27312996e+06
5.58000000e+02	7.16812047e+06
5.59000000e+02	7.06427326e+06
5.60000000e+02	6.96164026e+06
5.61000000e+02	6.86026698e+06
5.62000000e+02	6.76019280e+06
5.63000000e+02	6.66145127e+06
5.64000000e+02	6.56407037e+06
5.65000000e+02	6.46807284e+06
5.66000000e+02	6.37347647e+06
5.67000000e+02	6.28029439e+06
5.68000000e+02	6.18853540e+06
5.69000000e+02	6.09820428e+06
5.70000000e+02	6.00930206e+06
5.71000000e+02	5.92182629e+06
5.72000000e+02	5.83577136e+06
5.73000000e+02	5.75112872e+06
5.74000000e+02	5.66788713e+06
5.75000000e+02	5.58603295e+06
5.76000000e+02	5.50555038e+06
5.77000000e+02	5.42642163e+06
5.78000000e+02	5.34862718e+06
5.79000000e+02	5.27214595e+06
5.80000000e+02	5.19695547e+06
5.81000000e+02	5.12303207e+06
5.82000000e+02	5.05035104e+06
5.83000000e+02	4.97888677e+06
5.84000000e+02	4.90861289e+06
5.85000000e+02	4.83950241e+06
5.86000000e+02	4.77152785e+06
5.87000000e+02	4.70466134e+06
5.88000000e+02	4.63887471e+06
5.89000000e+02	4.57413960e+06
5.90000000e+02	4.51042754e+06
5.91000000e+02	4.44771003e+06
5.92000000e+02	4.38595864e+06
5.93000000e+02	4.32514502e+06
5.94000000e+02	4.26524094e+06
5.95000000e+02	4.20621838e+06
5.96000000e+02	4.14804957e+06
5.97000000e+02	4.09070713e+06
5.98000000e+02	4.03416400e+06
5.99000000e+02	3.97839352e+06
6.00000000e+02	3.92336937e+06
6.01000000e+02	3.86906571e+06
6.02000000e+02	3.81545719e+06
6.03000000e+02	3.76251896e+06
6.04000000e+02	3.71022665e+06
6.05000000e+02	3.65855649e+06
6.06000000e+02	3.60748518e+06
6.07000000e+02	3.55699004e+06
6.08000000e+02	3.50704893e+06
6.09000000e+02	3.45764033e+06
6.10000000e+02	3.40874330e+06
6.11000000e+02	3.36033756e+06
6.12000000e+02	3.31240337e+06
6.13000000e+02	3.26492164e+06
6.14000000e+02	3.21787399e+06
6.15000000e+02	3.17124270e+06
6.16000000e+02	3.12501076e+06
6.17000000e+02	3.07916155e+06
6.18000000e+02	3.03367908e+06
6.19000000e+02	2.98854819e+06
6.20000000e+02	2.94375442e+06
6.21000000e+02	2.89928421e+06
6.22000000e+02	2.85512377e+06
6.23000000e+02	2.81126110e+06
6.24000000e+02	2.76768390e+06
6.25000000e+02	2.72438063e+06
6.26000000e+02	2.68134242e+06
6.27000000e+02	2.63855416e+06
6.28000000e+02	2.59601780e+06
6.29000000e+02	2.55370733e+06
6.30000000e+02	2.51162049e+06
6.31000000e+02	2.46979139e+06
6.32000000e+02	2.42813772e+06
6.33000000e+02	2.38669339e+06
6.34000000e+02	2.34545632e+06
6.35000000e+02	2.30440705e+06
6.36000000e+02	2.26356108e+06
6.37000000e+02	2.22288296e+06
6.38000000e+02	2.18241876e+06
6.39000000e+02	2.14209628e+06
6.40000000e+02	2.10198139e+06
6.41000000e+02	2.06202754e+06
6.42000000e+02	2.02224460e+06
6.43000000e+02	1.98265464e+06
6.44000000e+02	1.94320192e+06
6.45000000e+02	1.90394495e+06
6.46000000e+02	1.86484694e+06
6.47000000e+02	1.82591345e+06
6.48000000e+02	1.78717078e+06
6.49000000e+02	1.74856661e+06
6.50000000e+02	1.71015462e+06
6.51000000e+02	1.67190907e+06
6.52000000e+02	1.63382623e+06
6.53000000e+02	1.59593801e+06
6.54000000e+02	1.55819507e+06
6.55000000e+02	1.52064566e+06
6.56000000e+02	1.48327639e+06
6.57000000e+02	1.44606928e+06
6.58000000e+02	1.40906129e+06
6.59000000e+02	1.37220864e+06
