# Profil de ElecX au temps 1.200000000000016e-11 
# simu : /Volumes/MERCURE/JOBS/Zeq2_tanh_50mic_1p5e20_B0_20ps/GNU/ElecX@y-c.set
# col 0 : abscisse (um)
# col 1 : ElecX (V/m)
0.00000000e+00	0.00000000e+00
1.00000000e+00	2.94889173e+03
2.00000000e+00	2.76672785e+03
3.00000000e+00	4.32601464e+03
4.00000000e+00	6.48886523e+03
5.00000000e+00	8.01755107e+03
6.00000000e+00	9.60902142e+03
7.00000000e+00	1.12140347e+04
8.00000000e+00	1.28229855e+04
9.00000000e+00	1.44350356e+04
1.00000000e+01	1.60503775e+04
1.10000000e+01	1.76693504e+04
1.20000000e+01	1.92924474e+04
1.30000000e+01	2.09197554e+04
1.40000000e+01	2.25518312e+04
1.50000000e+01	2.41891016e+04
1.60000000e+01	2.58318036e+04
1.70000000e+01	2.74801170e+04
1.80000000e+01	2.91348645e+04
1.90000000e+01	3.07959292e+04
2.00000000e+01	3.24638669e+04
2.10000000e+01	3.41391813e+04
2.20000000e+01	3.58217123e+04
2.30000000e+01	3.75126062e+04
2.40000000e+01	3.92111614e+04
2.50000000e+01	4.09188670e+04
2.60000000e+01	4.26349465e+04
2.70000000e+01	4.43608229e+04
2.80000000e+01	4.60956605e+04
2.90000000e+01	4.78409751e+04
3.00000000e+01	4.95960736e+04
3.10000000e+01	5.13620097e+04
3.20000000e+01	5.31386337e+04
3.30000000e+01	5.49265395e+04
3.40000000e+01	5.67259476e+04
3.50000000e+01	5.85370406e+04
3.60000000e+01	6.03604650e+04
3.70000000e+01	6.21960680e+04
3.80000000e+01	6.40445282e+04
3.90000000e+01	6.59060772e+04
4.00000000e+01	6.77806540e+04
4.10000000e+01	6.96692111e+04
4.20000000e+01	7.15713154e+04
4.30000000e+01	7.34877347e+04
4.40000000e+01	7.54187376e+04
4.50000000e+01	7.73640978e+04
4.60000000e+01	7.93247987e+04
4.70000000e+01	8.13006581e+04
4.80000000e+01	8.32918597e+04
4.90000000e+01	8.52990961e+04
5.00000000e+01	8.73222746e+04
5.10000000e+01	8.93616131e+04
5.20000000e+01	9.14176635e+04
5.30000000e+01	9.34904541e+04
5.40000000e+01	9.55801084e+04
5.50000000e+01	9.76871732e+04
5.60000000e+01	9.98117242e+04
5.70000000e+01	1.01953778e+05
5.80000000e+01	1.04113939e+05
5.90000000e+01	1.06292267e+05
6.00000000e+01	1.08488712e+05
6.10000000e+01	1.10703930e+05
6.20000000e+01	1.12937891e+05
6.30000000e+01	1.15190666e+05
6.40000000e+01	1.17462728e+05
6.50000000e+01	1.19754115e+05
6.60000000e+01	1.22064989e+05
6.70000000e+01	1.24395553e+05
6.80000000e+01	1.26746092e+05
6.90000000e+01	1.29116667e+05
7.00000000e+01	1.31507325e+05
7.10000000e+01	1.33918557e+05
7.20000000e+01	1.36350315e+05
7.30000000e+01	1.38802614e+05
7.40000000e+01	1.41275897e+05
7.50000000e+01	1.43770203e+05
7.60000000e+01	1.46285590e+05
7.70000000e+01	1.48822168e+05
7.80000000e+01	1.51380290e+05
7.90000000e+01	1.53959960e+05
8.00000000e+01	1.56561132e+05
8.10000000e+01	1.59184173e+05
8.20000000e+01	1.61829145e+05
8.30000000e+01	1.64496113e+05
8.40000000e+01	1.67185073e+05
8.50000000e+01	1.69896382e+05
8.60000000e+01	1.72629985e+05
8.70000000e+01	1.75385945e+05
8.80000000e+01	1.78164400e+05
8.90000000e+01	1.80965501e+05
9.00000000e+01	1.83789299e+05
9.10000000e+01	1.86635714e+05
9.20000000e+01	1.89505046e+05
9.30000000e+01	1.92397284e+05
9.40000000e+01	1.95312520e+05
9.50000000e+01	1.98250673e+05
9.60000000e+01	2.01212011e+05
9.70000000e+01	2.04196497e+05
9.80000000e+01	2.07204213e+05
9.90000000e+01	2.10235113e+05
1.00000000e+02	2.13289377e+05
1.01000000e+02	2.16367008e+05
1.02000000e+02	2.19468048e+05
1.03000000e+02	2.22592498e+05
1.04000000e+02	2.25740411e+05
1.05000000e+02	2.28911886e+05
1.06000000e+02	2.32106890e+05
1.07000000e+02	2.35325498e+05
1.08000000e+02	2.38567625e+05
1.09000000e+02	2.41833455e+05
1.10000000e+02	2.45122921e+05
1.11000000e+02	2.48436058e+05
1.12000000e+02	2.51772909e+05
1.13000000e+02	2.55133396e+05
1.14000000e+02	2.58517672e+05
1.15000000e+02	2.61925671e+05
1.16000000e+02	2.65357360e+05
1.17000000e+02	2.68812739e+05
1.18000000e+02	2.72291940e+05
1.19000000e+02	2.75794949e+05
1.20000000e+02	2.79321773e+05
1.21000000e+02	2.82872390e+05
1.22000000e+02	2.86446808e+05
1.23000000e+02	2.90045031e+05
1.24000000e+02	2.93667059e+05
1.25000000e+02	2.97312880e+05
1.26000000e+02	3.00982532e+05
1.27000000e+02	3.04675989e+05
1.28000000e+02	3.08393262e+05
1.29000000e+02	3.12134353e+05
1.30000000e+02	3.15899264e+05
1.31000000e+02	3.19687999e+05
1.32000000e+02	3.23500557e+05
1.33000000e+02	3.27336944e+05
1.34000000e+02	3.31197168e+05
1.35000000e+02	3.35081230e+05
1.36000000e+02	3.38989146e+05
1.37000000e+02	3.42920590e+05
1.38000000e+02	3.46875982e+05
1.39000000e+02	3.50855393e+05
1.40000000e+02	3.54858751e+05
1.41000000e+02	3.58886046e+05
1.42000000e+02	3.62937276e+05
1.43000000e+02	3.67012452e+05
1.44000000e+02	3.71111588e+05
1.45000000e+02	3.75234703e+05
1.46000000e+02	3.79381820e+05
1.47000000e+02	3.83552965e+05
1.48000000e+02	3.87748166e+05
1.49000000e+02	3.91967456e+05
1.50000000e+02	3.96210870e+05
1.51000000e+02	4.00478445e+05
1.52000000e+02	4.04770223e+05
1.53000000e+02	4.09086250e+05
1.54000000e+02	4.13426575e+05
1.55000000e+02	4.17791249e+05
1.56000000e+02	4.22180331e+05
1.57000000e+02	4.26593879e+05
1.58000000e+02	4.31031960e+05
1.59000000e+02	4.35494643e+05
1.60000000e+02	4.39982002e+05
1.61000000e+02	4.44494115e+05
1.62000000e+02	4.49031068e+05
1.63000000e+02	4.53592950e+05
1.64000000e+02	4.58179853e+05
1.65000000e+02	4.62791880e+05
1.66000000e+02	4.67429134e+05
1.67000000e+02	4.72091729e+05
1.68000000e+02	4.76779780e+05
1.69000000e+02	4.81493413e+05
1.70000000e+02	4.86232756e+05
1.71000000e+02	4.90997947e+05
1.72000000e+02	4.95789130e+05
1.73000000e+02	5.00606453e+05
1.74000000e+02	5.05450077e+05
1.75000000e+02	5.10320164e+05
1.76000000e+02	5.15216888e+05
1.77000000e+02	5.20140428e+05
1.78000000e+02	5.25090973e+05
1.79000000e+02	5.30068719e+05
1.80000000e+02	5.35073869e+05
1.81000000e+02	5.40106639e+05
1.82000000e+02	5.45167248e+05
1.83000000e+02	5.50255928e+05
1.84000000e+02	5.55372918e+05
1.85000000e+02	5.60518467e+05
1.86000000e+02	5.65692835e+05
1.87000000e+02	5.70896289e+05
1.88000000e+02	5.76129109e+05
1.89000000e+02	5.81391582e+05
1.90000000e+02	5.86684008e+05
1.91000000e+02	5.92006697e+05
1.92000000e+02	5.97359969e+05
1.93000000e+02	6.02744156e+05
1.94000000e+02	6.08159602e+05
1.95000000e+02	6.13606662e+05
1.96000000e+02	6.19085701e+05
1.97000000e+02	6.24597099e+05
1.98000000e+02	6.30141247e+05
1.99000000e+02	6.35718549e+05
2.00000000e+02	6.41329420e+05
2.01000000e+02	6.46974292e+05
2.02000000e+02	6.52653606e+05
2.03000000e+02	6.58367819e+05
2.04000000e+02	6.64117401e+05
2.05000000e+02	6.69902838e+05
2.06000000e+02	6.75724628e+05
2.07000000e+02	6.81583285e+05
2.08000000e+02	6.87479336e+05
2.09000000e+02	6.93413327e+05
2.10000000e+02	6.99385815e+05
2.11000000e+02	7.05397377e+05
2.12000000e+02	7.11448602e+05
2.13000000e+02	7.17540099e+05
2.14000000e+02	7.23672490e+05
2.15000000e+02	7.29846418e+05
2.16000000e+02	7.36062539e+05
2.17000000e+02	7.42321530e+05
2.18000000e+02	7.48624082e+05
2.19000000e+02	7.54970908e+05
2.20000000e+02	7.61362737e+05
2.21000000e+02	7.67800316e+05
2.22000000e+02	7.74284414e+05
2.23000000e+02	7.80815815e+05
2.24000000e+02	7.87395326e+05
2.25000000e+02	7.94023772e+05
2.26000000e+02	8.00701998e+05
2.27000000e+02	8.07430870e+05
2.28000000e+02	8.14211275e+05
2.29000000e+02	8.21044120e+05
2.30000000e+02	8.27930333e+05
2.31000000e+02	8.34870866e+05
2.32000000e+02	8.41866690e+05
2.33000000e+02	8.48918798e+05
2.34000000e+02	8.56028208e+05
2.35000000e+02	8.63195959e+05
2.36000000e+02	8.70423113e+05
2.37000000e+02	8.77710755e+05
2.38000000e+02	8.85059993e+05
2.39000000e+02	8.92471962e+05
2.40000000e+02	8.99947817e+05
2.41000000e+02	9.07488740e+05
2.42000000e+02	9.15095935e+05
2.43000000e+02	9.22770635e+05
2.44000000e+02	9.30514095e+05
2.45000000e+02	9.38327595e+05
2.46000000e+02	9.46212443e+05
2.47000000e+02	9.54169972e+05
2.48000000e+02	9.62201539e+05
2.49000000e+02	9.70308532e+05
2.50000000e+02	9.78492361e+05
2.51000000e+02	9.86754466e+05
2.52000000e+02	9.95096312e+05
2.53000000e+02	1.00351939e+06
2.54000000e+02	1.01202523e+06
2.55000000e+02	1.02061538e+06
2.56000000e+02	1.02929140e+06
2.57000000e+02	1.03805491e+06
2.58000000e+02	1.04690755e+06
2.59000000e+02	1.05585097e+06
2.60000000e+02	1.06488686e+06
2.61000000e+02	1.07401695e+06
2.62000000e+02	1.08324299e+06
2.63000000e+02	1.09256675e+06
2.64000000e+02	1.10199005e+06
2.65000000e+02	1.11151472e+06
2.66000000e+02	1.12114263e+06
2.67000000e+02	1.13087569e+06
2.68000000e+02	1.14071582e+06
2.69000000e+02	1.15066499e+06
2.70000000e+02	1.16072518e+06
2.71000000e+02	1.17089842e+06
2.72000000e+02	1.18118677e+06
2.73000000e+02	1.19159230e+06
2.74000000e+02	1.20211715e+06
2.75000000e+02	1.21276345e+06
2.76000000e+02	1.22353338e+06
2.77000000e+02	1.23442917e+06
2.78000000e+02	1.24545305e+06
2.79000000e+02	1.25660730e+06
2.80000000e+02	1.26789424e+06
2.81000000e+02	1.27931621e+06
2.82000000e+02	1.29087559e+06
2.83000000e+02	1.30257477e+06
2.84000000e+02	1.31441622e+06
2.85000000e+02	1.32640240e+06
2.86000000e+02	1.33853583e+06
2.87000000e+02	1.35081904e+06
2.88000000e+02	1.36325462e+06
2.89000000e+02	1.37584519e+06
2.90000000e+02	1.38859338e+06
2.91000000e+02	1.40150187e+06
2.92000000e+02	1.41457340e+06
2.93000000e+02	1.42781069e+06
2.94000000e+02	1.44121655e+06
2.95000000e+02	1.45479379e+06
2.96000000e+02	1.46854527e+06
2.97000000e+02	1.48247389e+06
2.98000000e+02	1.49658256e+06
2.99000000e+02	1.51087425e+06
3.00000000e+02	1.52535197e+06
3.01000000e+02	1.54001874e+06
3.02000000e+02	1.55487764e+06
3.03000000e+02	1.56993178e+06
3.04000000e+02	1.58518430e+06
3.05000000e+02	1.60063839e+06
3.06000000e+02	1.61629726e+06
3.07000000e+02	1.63216416e+06
3.08000000e+02	1.64824239e+06
3.09000000e+02	1.66453528e+06
3.10000000e+02	1.68104619e+06
3.11000000e+02	1.69777852e+06
3.12000000e+02	1.71473572e+06
3.13000000e+02	1.73192126e+06
3.14000000e+02	1.74933866e+06
3.15000000e+02	1.76699146e+06
3.16000000e+02	1.78488326e+06
3.17000000e+02	1.80301768e+06
3.18000000e+02	1.82139838e+06
3.19000000e+02	1.84002906e+06
3.20000000e+02	1.85891346e+06
3.21000000e+02	1.87805535e+06
3.22000000e+02	1.89745853e+06
3.23000000e+02	1.91712686e+06
3.24000000e+02	1.93706421e+06
3.25000000e+02	1.95727450e+06
3.26000000e+02	1.97776168e+06
3.27000000e+02	1.99852973e+06
3.28000000e+02	2.01958268e+06
3.29000000e+02	2.04092457e+06
3.30000000e+02	2.06255951e+06
3.31000000e+02	2.08449160e+06
3.32000000e+02	2.10672500e+06
3.33000000e+02	2.12926389e+06
3.34000000e+02	2.15211249e+06
3.35000000e+02	2.17527505e+06
3.36000000e+02	2.19875583e+06
3.37000000e+02	2.22255915e+06
3.38000000e+02	2.24668932e+06
3.39000000e+02	2.27115071e+06
3.40000000e+02	2.29594769e+06
3.41000000e+02	2.32108468e+06
3.42000000e+02	2.34656610e+06
3.43000000e+02	2.37239639e+06
3.44000000e+02	2.39858004e+06
3.45000000e+02	2.42512152e+06
3.46000000e+02	2.45202534e+06
3.47000000e+02	2.47929603e+06
3.48000000e+02	2.50693811e+06
3.49000000e+02	2.53495612e+06
3.50000000e+02	2.56335464e+06
3.51000000e+02	2.59213820e+06
3.52000000e+02	2.62131140e+06
3.53000000e+02	2.65087879e+06
3.54000000e+02	2.68084494e+06
3.55000000e+02	2.71121443e+06
3.56000000e+02	2.74199183e+06
3.57000000e+02	2.77318169e+06
3.58000000e+02	2.80478857e+06
3.59000000e+02	2.83681700e+06
3.60000000e+02	2.86927150e+06
3.61000000e+02	2.90215658e+06
3.62000000e+02	2.93547672e+06
3.63000000e+02	2.96923637e+06
3.64000000e+02	3.00343997e+06
3.65000000e+02	3.03809192e+06
3.66000000e+02	3.07319656e+06
3.67000000e+02	3.10875823e+06
3.68000000e+02	3.14478120e+06
3.69000000e+02	3.18126969e+06
3.70000000e+02	3.21822790e+06
3.71000000e+02	3.25565993e+06
3.72000000e+02	3.29356985e+06
3.73000000e+02	3.33196166e+06
3.74000000e+02	3.37083928e+06
3.75000000e+02	3.41020656e+06
3.76000000e+02	3.45006728e+06
3.77000000e+02	3.49042512e+06
3.78000000e+02	3.53128369e+06
3.79000000e+02	3.57264648e+06
3.80000000e+02	3.61451689e+06
3.81000000e+02	3.65689824e+06
3.82000000e+02	3.69979369e+06
3.83000000e+02	3.74320634e+06
3.84000000e+02	3.78713911e+06
3.85000000e+02	3.83159483e+06
3.86000000e+02	3.87657620e+06
3.87000000e+02	3.92208574e+06
3.88000000e+02	3.96812587e+06
3.89000000e+02	4.01469883e+06
3.90000000e+02	4.06180672e+06
3.91000000e+02	4.10945145e+06
3.92000000e+02	4.15763478e+06
3.93000000e+02	4.20635830e+06
3.94000000e+02	4.25562339e+06
3.95000000e+02	4.30543126e+06
3.96000000e+02	4.35578292e+06
3.97000000e+02	4.40667918e+06
3.98000000e+02	4.45812064e+06
3.99000000e+02	4.51010768e+06
4.00000000e+02	4.56264046e+06
4.01000000e+02	4.61571893e+06
4.02000000e+02	4.66934277e+06
4.03000000e+02	4.72351146e+06
4.04000000e+02	4.77822420e+06
4.05000000e+02	4.83347997e+06
4.06000000e+02	4.88927747e+06
4.07000000e+02	4.94561513e+06
4.08000000e+02	5.00249114e+06
4.09000000e+02	5.05990337e+06
4.10000000e+02	5.11784946e+06
4.11000000e+02	5.17632671e+06
4.12000000e+02	5.23533217e+06
4.13000000e+02	5.29486256e+06
4.14000000e+02	5.35491432e+06
4.15000000e+02	5.41548356e+06
4.16000000e+02	5.47656610e+06
4.17000000e+02	5.53815742e+06
4.18000000e+02	5.60025267e+06
4.19000000e+02	5.66284670e+06
4.20000000e+02	5.72593399e+06
4.21000000e+02	5.78950870e+06
4.22000000e+02	5.85356465e+06
4.23000000e+02	5.91809529e+06
4.24000000e+02	5.98309373e+06
4.25000000e+02	6.04855273e+06
4.26000000e+02	6.11446465e+06
4.27000000e+02	6.18082151e+06
4.28000000e+02	6.24761495e+06
4.29000000e+02	6.31483622e+06
4.30000000e+02	6.38247618e+06
4.31000000e+02	6.45052530e+06
4.32000000e+02	6.51897366e+06
4.33000000e+02	6.58781092e+06
4.34000000e+02	6.65702631e+06
4.35000000e+02	6.72660867e+06
4.36000000e+02	6.79654639e+06
4.37000000e+02	6.86682740e+06
4.38000000e+02	6.93743922e+06
4.39000000e+02	7.00836886e+06
4.40000000e+02	7.07960288e+06
4.41000000e+02	7.15112735e+06
4.42000000e+02	7.22292783e+06
4.43000000e+02	7.29498936e+06
4.44000000e+02	7.36729645e+06
4.45000000e+02	7.43983303e+06
4.46000000e+02	7.51258250e+06
4.47000000e+02	7.58552761e+06
4.48000000e+02	7.65865052e+06
4.49000000e+02	7.73193274e+06
4.50000000e+02	7.80535509e+06
4.51000000e+02	7.87889769e+06
4.52000000e+02	7.95253995e+06
4.53000000e+02	8.02626046e+06
4.54000000e+02	8.10003703e+06
4.55000000e+02	8.17384663e+06
4.56000000e+02	8.24766531e+06
4.57000000e+02	8.32146822e+06
4.58000000e+02	8.39522951e+06
4.59000000e+02	8.46892230e+06
4.60000000e+02	8.54251862e+06
4.61000000e+02	8.61598939e+06
4.62000000e+02	8.68930431e+06
4.63000000e+02	8.76243183e+06
4.64000000e+02	8.83533908e+06
4.65000000e+02	8.90799184e+06
4.66000000e+02	8.98035439e+06
4.67000000e+02	9.05238954e+06
4.68000000e+02	9.12405850e+06
4.69000000e+02	9.19532081e+06
4.70000000e+02	9.26613431e+06
4.71000000e+02	9.33645501e+06
4.72000000e+02	9.40623708e+06
4.73000000e+02	9.47543272e+06
4.74000000e+02	9.54399213e+06
4.75000000e+02	9.61186343e+06
4.76000000e+02	9.67899259e+06
4.77000000e+02	9.74532338e+06
4.78000000e+02	9.81079728e+06
4.79000000e+02	9.87535347e+06
4.80000000e+02	9.93892876e+06
4.81000000e+02	1.00014576e+07
4.82000000e+02	1.00628718e+07
4.83000000e+02	1.01231011e+07
4.84000000e+02	1.01820724e+07
4.85000000e+02	1.02397104e+07
4.86000000e+02	1.02959371e+07
4.87000000e+02	1.03506725e+07
4.88000000e+02	1.04038338e+07
4.89000000e+02	1.04553362e+07
4.90000000e+02	1.05050927e+07
4.91000000e+02	1.05530141e+07
4.92000000e+02	1.05990093e+07
4.93000000e+02	1.06429855e+07
4.94000000e+02	1.06848483e+07
4.95000000e+02	1.07245020e+07
4.96000000e+02	1.07618496e+07
4.97000000e+02	1.07967934e+07
4.98000000e+02	1.08292353e+07
4.99000000e+02	1.08590767e+07
5.00000000e+02	1.08862195e+07
5.01000000e+02	1.09105661e+07
5.02000000e+02	1.09320199e+07
5.03000000e+02	1.09504859e+07
5.04000000e+02	1.09658709e+07
5.05000000e+02	1.09780845e+07
5.06000000e+02	1.09870391e+07
5.07000000e+02	1.09926510e+07
5.08000000e+02	1.09948404e+07
5.09000000e+02	1.09935327e+07
5.10000000e+02	1.09886583e+07
5.11000000e+02	1.09801539e+07
5.12000000e+02	1.09679626e+07
5.13000000e+02	1.09520350e+07
5.14000000e+02	1.09323291e+07
5.15000000e+02	1.09088114e+07
5.16000000e+02	1.08814573e+07
5.17000000e+02	1.08502513e+07
5.18000000e+02	1.08151877e+07
5.19000000e+02	1.07762709e+07
5.20000000e+02	1.07335156e+07
5.21000000e+02	1.06869472e+07
5.22000000e+02	1.06366018e+07
5.23000000e+02	1.05825264e+07
5.24000000e+02	1.05247789e+07
5.25000000e+02	1.04634280e+07
5.26000000e+02	1.03985529e+07
5.27000000e+02	1.03302431e+07
5.28000000e+02	1.02585983e+07
5.29000000e+02	1.01837277e+07
5.30000000e+02	1.01057495e+07
5.31000000e+02	1.00247904e+07
5.32000000e+02	9.94098501e+06
5.33000000e+02	9.85447488e+06
5.34000000e+02	9.76540803e+06
5.35000000e+02	9.67393795e+06
5.36000000e+02	9.58022283e+06
5.37000000e+02	9.48442463e+06
5.38000000e+02	9.38670825e+06
5.39000000e+02	9.28724057e+06
5.40000000e+02	9.18618961e+06
5.41000000e+02	9.08372366e+06
5.42000000e+02	8.98001037e+06
5.43000000e+02	8.87521603e+06
5.44000000e+02	8.76950469e+06
5.45000000e+02	8.66303752e+06
5.46000000e+02	8.55597207e+06
5.47000000e+02	8.44846169e+06
5.48000000e+02	8.34065496e+06
5.49000000e+02	8.23269518e+06
5.50000000e+02	8.12471994e+06
5.51000000e+02	8.01686080e+06
5.52000000e+02	7.90924292e+06
5.53000000e+02	7.80198486e+06
5.54000000e+02	7.69519840e+06
5.55000000e+02	7.58898841e+06
5.56000000e+02	7.48345280e+06
5.57000000e+02	7.37868248e+06
5.58000000e+02	7.27476141e+06
5.59000000e+02	7.17176669e+06
5.60000000e+02	7.06976863e+06
5.61000000e+02	6.96883097e+06
5.62000000e+02	6.86901098e+06
5.63000000e+02	6.77035973e+06
5.64000000e+02	6.67292230e+06
5.65000000e+02	6.57673798e+06
5.66000000e+02	6.48184057e+06
5.67000000e+02	6.38825865e+06
5.68000000e+02	6.29601582e+06
5.69000000e+02	6.20513100e+06
5.70000000e+02	6.11561870e+06
5.71000000e+02	6.02748931e+06
5.72000000e+02	5.94074938e+06
5.73000000e+02	5.85540185e+06
5.74000000e+02	5.77144637e+06
5.75000000e+02	5.68887951e+06
5.76000000e+02	5.60769502e+06
5.77000000e+02	5.52788409e+06
5.78000000e+02	5.44943553e+06
5.79000000e+02	5.37233603e+06
5.80000000e+02	5.29657032e+06
5.81000000e+02	5.22212140e+06
5.82000000e+02	5.14897073e+06
5.83000000e+02	5.07709834e+06
5.84000000e+02	5.00648309e+06
5.85000000e+02	4.93710273e+06
5.86000000e+02	4.86893409e+06
5.87000000e+02	4.80195317e+06
5.88000000e+02	4.73613529e+06
5.89000000e+02	4.67145523e+06
5.90000000e+02	4.60788724e+06
5.91000000e+02	4.54540522e+06
5.92000000e+02	4.48398277e+06
5.93000000e+02	4.42359326e+06
5.94000000e+02	4.36420991e+06
5.95000000e+02	4.30580588e+06
5.96000000e+02	4.24835427e+06
5.97000000e+02	4.19182823e+06
5.98000000e+02	4.13620096e+06
5.99000000e+02	4.08144583e+06
6.00000000e+02	4.02753633e+06
6.01000000e+02	3.97444617e+06
6.02000000e+02	3.92214926e+06
6.03000000e+02	3.87061976e+06
6.04000000e+02	3.81983206e+06
6.05000000e+02	3.76976091e+06
6.06000000e+02	3.72038133e+06
6.07000000e+02	3.67166872e+06
6.08000000e+02	3.62359875e+06
6.09000000e+02	3.57614747e+06
6.10000000e+02	3.52929129e+06
6.11000000e+02	3.48300703e+06
6.12000000e+02	3.43727188e+06
6.13000000e+02	3.39206342e+06
6.14000000e+02	3.34735963e+06
6.15000000e+02	3.30313890e+06
6.16000000e+02	3.25938002e+06
6.17000000e+02	3.21606218e+06
6.18000000e+02	3.17316501e+06
6.19000000e+02	3.13066853e+06
6.20000000e+02	3.08855323e+06
6.21000000e+02	3.04680000e+06
6.22000000e+02	3.00539016e+06
6.23000000e+02	2.96430547e+06
6.24000000e+02	2.92352811e+06
6.25000000e+02	2.88304070e+06
6.26000000e+02	2.84282635e+06
6.27000000e+02	2.80286856e+06
6.28000000e+02	2.76315125e+06
6.29000000e+02	2.72365884e+06
6.30000000e+02	2.68437619e+06
6.31000000e+02	2.64528857e+06
6.32000000e+02	2.60638176e+06
6.33000000e+02	2.56764195e+06
6.34000000e+02	2.52905584e+06
6.35000000e+02	2.49061042e+06
6.36000000e+02	2.45229322e+06
6.37000000e+02	2.41409284e+06
6.38000000e+02	2.37599679e+06
6.39000000e+02	2.33799442e+06
6.40000000e+02	2.30007730e+06
6.41000000e+02	2.26223065e+06
6.42000000e+02	2.22444067e+06
6.43000000e+02	2.18671789e+06
6.44000000e+02	2.14905548e+06
6.45000000e+02	2.11140334e+06
6.46000000e+02	2.07378387e+06
6.47000000e+02	2.03618736e+06
6.48000000e+02	1.99859631e+06
6.49000000e+02	1.96102143e+06
6.50000000e+02	1.92345848e+06
6.51000000e+02	1.88586823e+06
6.52000000e+02	1.84829159e+06
6.53000000e+02	1.81068951e+06
6.54000000e+02	1.77306356e+06
6.55000000e+02	1.73543356e+06
6.56000000e+02	1.69775412e+06
6.57000000e+02	1.66005328e+06
6.58000000e+02	1.62233471e+06
6.59000000e+02	1.58454984e+06
