# Profil de ElecX au temps 1.700999999999984e-11 
# simu : /Volumes/MERCURE/JOBS/Zeq2_tanh_50mic_1p5e20_B0_20ps/GNU/ElecX@y-c.set
# col 0 : abscisse (um)
# col 1 : ElecX (V/m)
0.00000000e+00	0.00000000e+00
1.00000000e+00	5.28677389e+03
2.00000000e+00	6.14569725e+03
3.00000000e+00	9.46941694e+03
4.00000000e+00	1.36473568e+04
5.00000000e+00	1.69190657e+04
6.00000000e+00	2.02791277e+04
7.00000000e+00	2.36555106e+04
8.00000000e+00	2.70336367e+04
9.00000000e+00	3.04116840e+04
1.00000000e+01	3.37893264e+04
1.10000000e+01	3.71665310e+04
1.20000000e+01	4.05436342e+04
1.30000000e+01	4.39198030e+04
1.40000000e+01	4.72955556e+04
1.50000000e+01	5.06711484e+04
1.60000000e+01	5.40460557e+04
1.70000000e+01	5.74198118e+04
1.80000000e+01	6.07938219e+04
1.90000000e+01	6.41664844e+04
2.00000000e+01	6.75386152e+04
2.10000000e+01	7.09104616e+04
2.20000000e+01	7.42805329e+04
2.30000000e+01	7.76513656e+04
2.40000000e+01	8.10194231e+04
2.50000000e+01	8.43886380e+04
2.60000000e+01	8.77551337e+04
2.70000000e+01	9.11226824e+04
2.80000000e+01	9.44871308e+04
2.90000000e+01	9.78526636e+04
3.00000000e+01	1.01215778e+05
3.10000000e+01	1.04578741e+05
3.20000000e+01	1.07940252e+05
3.30000000e+01	1.11300958e+05
3.40000000e+01	1.14660677e+05
3.50000000e+01	1.18018949e+05
3.60000000e+01	1.21376801e+05
3.70000000e+01	1.24732884e+05
3.80000000e+01	1.28088189e+05
3.90000000e+01	1.31442812e+05
4.00000000e+01	1.34795183e+05
4.10000000e+01	1.38147915e+05
4.20000000e+01	1.41498245e+05
4.30000000e+01	1.44847984e+05
4.40000000e+01	1.48197186e+05
4.50000000e+01	1.51543810e+05
4.60000000e+01	1.54890709e+05
4.70000000e+01	1.58236087e+05
4.80000000e+01	1.61579651e+05
4.90000000e+01	1.64923122e+05
5.00000000e+01	1.68265150e+05
5.10000000e+01	1.71605611e+05
5.20000000e+01	1.74945709e+05
5.30000000e+01	1.78284636e+05
5.40000000e+01	1.81621969e+05
5.50000000e+01	1.84958901e+05
5.60000000e+01	1.88294958e+05
5.70000000e+01	1.91629251e+05
5.80000000e+01	1.94963339e+05
5.90000000e+01	1.98296706e+05
6.00000000e+01	2.01628210e+05
6.10000000e+01	2.04959815e+05
6.20000000e+01	2.08290560e+05
6.30000000e+01	2.11619899e+05
6.40000000e+01	2.14949188e+05
6.50000000e+01	2.18277658e+05
6.60000000e+01	2.21605391e+05
6.70000000e+01	2.24932466e+05
6.80000000e+01	2.28259451e+05
6.90000000e+01	2.31585867e+05
7.00000000e+01	2.34911232e+05
7.10000000e+01	2.38237187e+05
7.20000000e+01	2.41562772e+05
7.30000000e+01	2.44887348e+05
7.40000000e+01	2.48212485e+05
7.50000000e+01	2.51537753e+05
7.60000000e+01	2.54862709e+05
7.70000000e+01	2.58187344e+05
7.80000000e+01	2.61512940e+05
7.90000000e+01	2.64838872e+05
8.00000000e+01	2.68164360e+05
8.10000000e+01	2.71490713e+05
8.20000000e+01	2.74817920e+05
8.30000000e+01	2.78145743e+05
8.40000000e+01	2.81473637e+05
8.50000000e+01	2.84803143e+05
8.60000000e+01	2.88133526e+05
8.70000000e+01	2.91464700e+05
8.80000000e+01	2.94797032e+05
8.90000000e+01	2.98131053e+05
9.00000000e+01	3.01466748e+05
9.10000000e+01	3.04803054e+05
9.20000000e+01	3.08141697e+05
9.30000000e+01	3.11482236e+05
9.40000000e+01	3.14824957e+05
9.50000000e+01	3.18168978e+05
9.60000000e+01	3.21515870e+05
9.70000000e+01	3.24865144e+05
9.80000000e+01	3.28217157e+05
9.90000000e+01	3.31571029e+05
1.00000000e+02	3.34927712e+05
1.01000000e+02	3.38288952e+05
1.02000000e+02	3.41652706e+05
1.03000000e+02	3.45019658e+05
1.04000000e+02	3.48390047e+05
1.05000000e+02	3.51764422e+05
1.06000000e+02	3.55142835e+05
1.07000000e+02	3.58525358e+05
1.08000000e+02	3.61911542e+05
1.09000000e+02	3.65302884e+05
1.10000000e+02	3.68698830e+05
1.11000000e+02	3.72099516e+05
1.12000000e+02	3.75505712e+05
1.13000000e+02	3.78916445e+05
1.14000000e+02	3.82333344e+05
1.15000000e+02	3.85755841e+05
1.16000000e+02	3.89184392e+05
1.17000000e+02	3.92619266e+05
1.18000000e+02	3.96060208e+05
1.19000000e+02	3.99507964e+05
1.20000000e+02	4.02962842e+05
1.21000000e+02	4.06424799e+05
1.22000000e+02	4.09894213e+05
1.23000000e+02	4.13371275e+05
1.24000000e+02	4.16856350e+05
1.25000000e+02	4.20349303e+05
1.26000000e+02	4.23851125e+05
1.27000000e+02	4.27361591e+05
1.28000000e+02	4.30880922e+05
1.29000000e+02	4.34409790e+05
1.30000000e+02	4.37948139e+05
1.31000000e+02	4.41496301e+05
1.32000000e+02	4.45054937e+05
1.33000000e+02	4.48623413e+05
1.34000000e+02	4.52203435e+05
1.35000000e+02	4.55793905e+05
1.36000000e+02	4.59396331e+05
1.37000000e+02	4.63009945e+05
1.38000000e+02	4.66636113e+05
1.39000000e+02	4.70274215e+05
1.40000000e+02	4.73925298e+05
1.41000000e+02	4.77589276e+05
1.42000000e+02	4.81266539e+05
1.43000000e+02	4.84957765e+05
1.44000000e+02	4.88662886e+05
1.45000000e+02	4.92382584e+05
1.46000000e+02	4.96115296e+05
1.47000000e+02	4.99866101e+05
1.48000000e+02	5.03631397e+05
1.49000000e+02	5.07412449e+05
1.50000000e+02	5.11209819e+05
1.51000000e+02	5.15023401e+05
1.52000000e+02	5.18854501e+05
1.53000000e+02	5.22702793e+05
1.54000000e+02	5.26568873e+05
1.55000000e+02	5.30453315e+05
1.56000000e+02	5.34356224e+05
1.57000000e+02	5.38278268e+05
1.58000000e+02	5.42219717e+05
1.59000000e+02	5.46181041e+05
1.60000000e+02	5.50162730e+05
1.61000000e+02	5.54165008e+05
1.62000000e+02	5.58188400e+05
1.63000000e+02	5.62233538e+05
1.64000000e+02	5.66300714e+05
1.65000000e+02	5.70390184e+05
1.66000000e+02	5.74502693e+05
1.67000000e+02	5.78638771e+05
1.68000000e+02	5.82798253e+05
1.69000000e+02	5.86982521e+05
1.70000000e+02	5.91191175e+05
1.71000000e+02	5.95425498e+05
1.72000000e+02	5.99685138e+05
1.73000000e+02	6.03971378e+05
1.74000000e+02	6.08283972e+05
1.75000000e+02	6.12624034e+05
1.76000000e+02	6.16991745e+05
1.77000000e+02	6.21387610e+05
1.78000000e+02	6.25812361e+05
1.79000000e+02	6.30266180e+05
1.80000000e+02	6.34749848e+05
1.81000000e+02	6.39263851e+05
1.82000000e+02	6.43807903e+05
1.83000000e+02	6.48384320e+05
1.84000000e+02	6.52992878e+05
1.85000000e+02	6.57633500e+05
1.86000000e+02	6.62306906e+05
1.87000000e+02	6.67014007e+05
1.88000000e+02	6.71755103e+05
1.89000000e+02	6.76531011e+05
1.90000000e+02	6.81342093e+05
1.91000000e+02	6.86188962e+05
1.92000000e+02	6.91072387e+05
1.93000000e+02	6.95992738e+05
1.94000000e+02	7.00950659e+05
1.95000000e+02	7.05946784e+05
1.96000000e+02	7.10981767e+05
1.97000000e+02	7.16056169e+05
1.98000000e+02	7.21170534e+05
1.99000000e+02	7.26325676e+05
2.00000000e+02	7.31521910e+05
2.01000000e+02	7.36760375e+05
2.02000000e+02	7.42041138e+05
2.03000000e+02	7.47365233e+05
2.04000000e+02	7.52733097e+05
2.05000000e+02	7.58145634e+05
2.06000000e+02	7.63603398e+05
2.07000000e+02	7.69106859e+05
2.08000000e+02	7.74657076e+05
2.09000000e+02	7.80254374e+05
2.10000000e+02	7.85899785e+05
2.11000000e+02	7.91593715e+05
2.12000000e+02	7.97336863e+05
2.13000000e+02	8.03130121e+05
2.14000000e+02	8.08974690e+05
2.15000000e+02	8.14870470e+05
2.16000000e+02	8.20818378e+05
2.17000000e+02	8.26819294e+05
2.18000000e+02	8.32873893e+05
2.19000000e+02	8.38983033e+05
2.20000000e+02	8.45147394e+05
2.21000000e+02	8.51368089e+05
2.22000000e+02	8.57645611e+05
2.23000000e+02	8.63980602e+05
2.24000000e+02	8.70373904e+05
2.25000000e+02	8.76826799e+05
2.26000000e+02	8.83339488e+05
2.27000000e+02	8.89912952e+05
2.28000000e+02	8.96548476e+05
2.29000000e+02	9.03246152e+05
2.30000000e+02	9.10007691e+05
2.31000000e+02	9.16833489e+05
2.32000000e+02	9.23724590e+05
2.33000000e+02	9.30681675e+05
2.34000000e+02	9.37705776e+05
2.35000000e+02	9.44797892e+05
2.36000000e+02	9.51958581e+05
2.37000000e+02	9.59189117e+05
2.38000000e+02	9.66490302e+05
2.39000000e+02	9.73862882e+05
2.40000000e+02	9.81308219e+05
2.41000000e+02	9.88827032e+05
2.42000000e+02	9.96420241e+05
2.43000000e+02	1.00408904e+06
2.44000000e+02	1.01183429e+06
2.45000000e+02	1.01965703e+06
2.46000000e+02	1.02755835e+06
2.47000000e+02	1.03553915e+06
2.48000000e+02	1.04360063e+06
2.49000000e+02	1.05174377e+06
2.50000000e+02	1.05996962e+06
2.51000000e+02	1.06827932e+06
2.52000000e+02	1.07667389e+06
2.53000000e+02	1.08515458e+06
2.54000000e+02	1.09372239e+06
2.55000000e+02	1.10237851e+06
2.56000000e+02	1.11112405e+06
2.57000000e+02	1.11996019e+06
2.58000000e+02	1.12888819e+06
2.59000000e+02	1.13790912e+06
2.60000000e+02	1.14702421e+06
2.61000000e+02	1.15623476e+06
2.62000000e+02	1.16554192e+06
2.63000000e+02	1.17494696e+06
2.64000000e+02	1.18445115e+06
2.65000000e+02	1.19405578e+06
2.66000000e+02	1.20376216e+06
2.67000000e+02	1.21357155e+06
2.68000000e+02	1.22348526e+06
2.69000000e+02	1.23350471e+06
2.70000000e+02	1.24363119e+06
2.71000000e+02	1.25386609e+06
2.72000000e+02	1.26421078e+06
2.73000000e+02	1.27466667e+06
2.74000000e+02	1.28523517e+06
2.75000000e+02	1.29591772e+06
2.76000000e+02	1.30671577e+06
2.77000000e+02	1.31763078e+06
2.78000000e+02	1.32866424e+06
2.79000000e+02	1.33981764e+06
2.80000000e+02	1.35109250e+06
2.81000000e+02	1.36249035e+06
2.82000000e+02	1.37401275e+06
2.83000000e+02	1.38566126e+06
2.84000000e+02	1.39743747e+06
2.85000000e+02	1.40934297e+06
2.86000000e+02	1.42137939e+06
2.87000000e+02	1.43354837e+06
2.88000000e+02	1.44585155e+06
2.89000000e+02	1.45829061e+06
2.90000000e+02	1.47086724e+06
2.91000000e+02	1.48358314e+06
2.92000000e+02	1.49644005e+06
2.93000000e+02	1.50943970e+06
2.94000000e+02	1.52258385e+06
2.95000000e+02	1.53587430e+06
2.96000000e+02	1.54931283e+06
2.97000000e+02	1.56290126e+06
2.98000000e+02	1.57664142e+06
2.99000000e+02	1.59053517e+06
3.00000000e+02	1.60458438e+06
3.01000000e+02	1.61879092e+06
3.02000000e+02	1.63315671e+06
3.03000000e+02	1.64768367e+06
3.04000000e+02	1.66237374e+06
3.05000000e+02	1.67722887e+06
3.06000000e+02	1.69225105e+06
3.07000000e+02	1.70744225e+06
3.08000000e+02	1.72280451e+06
3.09000000e+02	1.73833983e+06
3.10000000e+02	1.75405028e+06
3.11000000e+02	1.76993791e+06
3.12000000e+02	1.78600481e+06
3.13000000e+02	1.80225306e+06
3.14000000e+02	1.81868478e+06
3.15000000e+02	1.83530209e+06
3.16000000e+02	1.85210715e+06
3.17000000e+02	1.86910211e+06
3.18000000e+02	1.88628915e+06
3.19000000e+02	1.90367046e+06
3.20000000e+02	1.92124823e+06
3.21000000e+02	1.93902470e+06
3.22000000e+02	1.95700210e+06
3.23000000e+02	1.97518267e+06
3.24000000e+02	1.99356868e+06
3.25000000e+02	2.01216240e+06
3.26000000e+02	2.03096612e+06
3.27000000e+02	2.04998213e+06
3.28000000e+02	2.06921275e+06
3.29000000e+02	2.08866030e+06
3.30000000e+02	2.10832712e+06
3.31000000e+02	2.12821553e+06
3.32000000e+02	2.14832791e+06
3.33000000e+02	2.16866660e+06
3.34000000e+02	2.18923397e+06
3.35000000e+02	2.21003241e+06
3.36000000e+02	2.23106429e+06
3.37000000e+02	2.25233201e+06
3.38000000e+02	2.27383796e+06
3.39000000e+02	2.29558455e+06
3.40000000e+02	2.31757416e+06
3.41000000e+02	2.33980922e+06
3.42000000e+02	2.36229213e+06
3.43000000e+02	2.38502531e+06
3.44000000e+02	2.40801115e+06
3.45000000e+02	2.43125208e+06
3.46000000e+02	2.45475050e+06
3.47000000e+02	2.47850882e+06
3.48000000e+02	2.50252944e+06
3.49000000e+02	2.52681476e+06
3.50000000e+02	2.55136717e+06
3.51000000e+02	2.57618905e+06
3.52000000e+02	2.60128277e+06
3.53000000e+02	2.62665072e+06
3.54000000e+02	2.65229523e+06
3.55000000e+02	2.67821865e+06
3.56000000e+02	2.70442332e+06
3.57000000e+02	2.73091154e+06
3.58000000e+02	2.75768562e+06
3.59000000e+02	2.78474784e+06
3.60000000e+02	2.81210045e+06
3.61000000e+02	2.83974571e+06
3.62000000e+02	2.86768583e+06
3.63000000e+02	2.89592301e+06
3.64000000e+02	2.92445943e+06
3.65000000e+02	2.95329722e+06
3.66000000e+02	2.98243851e+06
3.67000000e+02	3.01188539e+06
3.68000000e+02	3.04163991e+06
3.69000000e+02	3.07170409e+06
3.70000000e+02	3.10207993e+06
3.71000000e+02	3.13276938e+06
3.72000000e+02	3.16377434e+06
3.73000000e+02	3.19509669e+06
3.74000000e+02	3.22673826e+06
3.75000000e+02	3.25870083e+06
3.76000000e+02	3.29098614e+06
3.77000000e+02	3.32359588e+06
3.78000000e+02	3.35653169e+06
3.79000000e+02	3.38979516e+06
3.80000000e+02	3.42338781e+06
3.81000000e+02	3.45731113e+06
3.82000000e+02	3.49156653e+06
3.83000000e+02	3.52615537e+06
3.84000000e+02	3.56107895e+06
3.85000000e+02	3.59633850e+06
3.86000000e+02	3.63193518e+06
3.87000000e+02	3.66787008e+06
3.88000000e+02	3.70414425e+06
3.89000000e+02	3.74075862e+06
3.90000000e+02	3.77771408e+06
3.91000000e+02	3.81501143e+06
3.92000000e+02	3.85265140e+06
3.93000000e+02	3.89063462e+06
3.94000000e+02	3.92896166e+06
3.95000000e+02	3.96763300e+06
3.96000000e+02	4.00664902e+06
3.97000000e+02	4.04601003e+06
3.98000000e+02	4.08571623e+06
3.99000000e+02	4.12576774e+06
4.00000000e+02	4.16616458e+06
4.01000000e+02	4.20690668e+06
4.02000000e+02	4.24799386e+06
4.03000000e+02	4.28942585e+06
4.04000000e+02	4.33120227e+06
4.05000000e+02	4.37332263e+06
4.06000000e+02	4.41578636e+06
4.07000000e+02	4.45859274e+06
4.08000000e+02	4.50174098e+06
4.09000000e+02	4.54523015e+06
4.10000000e+02	4.58905921e+06
4.11000000e+02	4.63322703e+06
4.12000000e+02	4.67773231e+06
4.13000000e+02	4.72257369e+06
4.14000000e+02	4.76774964e+06
4.15000000e+02	4.81325854e+06
4.16000000e+02	4.85909861e+06
4.17000000e+02	4.90526798e+06
4.18000000e+02	4.95176461e+06
4.19000000e+02	4.99858637e+06
4.20000000e+02	5.04573095e+06
4.21000000e+02	5.09319595e+06
4.22000000e+02	5.14097879e+06
4.23000000e+02	5.18907678e+06
4.24000000e+02	5.23748706e+06
4.25000000e+02	5.28620664e+06
4.26000000e+02	5.33523237e+06
4.27000000e+02	5.38456097e+06
4.28000000e+02	5.43418896e+06
4.29000000e+02	5.48411275e+06
4.30000000e+02	5.53432855e+06
4.31000000e+02	5.58483242e+06
4.32000000e+02	5.63562026e+06
4.33000000e+02	5.68668776e+06
4.34000000e+02	5.73803046e+06
4.35000000e+02	5.78964371e+06
4.36000000e+02	5.84152266e+06
4.37000000e+02	5.89366226e+06
4.38000000e+02	5.94605728e+06
4.39000000e+02	5.99870226e+06
4.40000000e+02	6.05159152e+06
4.41000000e+02	6.10471917e+06
4.42000000e+02	6.15807909e+06
4.43000000e+02	6.21166489e+06
4.44000000e+02	6.26546995e+06
4.45000000e+02	6.31948739e+06
4.46000000e+02	6.37371004e+06
4.47000000e+02	6.42813047e+06
4.48000000e+02	6.48274092e+06
4.49000000e+02	6.53753335e+06
4.50000000e+02	6.59249936e+06
4.51000000e+02	6.64763024e+06
4.52000000e+02	6.70291691e+06
4.53000000e+02	6.75834991e+06
4.54000000e+02	6.81391939e+06
4.55000000e+02	6.86961509e+06
4.56000000e+02	6.92542631e+06
4.57000000e+02	6.98134191e+06
4.58000000e+02	7.03735025e+06
4.59000000e+02	7.09343920e+06
4.60000000e+02	7.14959610e+06
4.61000000e+02	7.20580774e+06
4.62000000e+02	7.26206032e+06
4.63000000e+02	7.31833942e+06
4.64000000e+02	7.37463000e+06
4.65000000e+02	7.43091633e+06
4.66000000e+02	7.48718198e+06
4.67000000e+02	7.54340976e+06
4.68000000e+02	7.59958172e+06
4.69000000e+02	7.65567909e+06
4.70000000e+02	7.71168225e+06
4.71000000e+02	7.76757068e+06
4.72000000e+02	7.82332293e+06
4.73000000e+02	7.87891658e+06
4.74000000e+02	7.93432819e+06
4.75000000e+02	7.98953326e+06
4.76000000e+02	8.04450618e+06
4.77000000e+02	8.09922021e+06
4.78000000e+02	8.15364740e+06
4.79000000e+02	8.20775857e+06
4.80000000e+02	8.26152327e+06
4.81000000e+02	8.31490970e+06
4.82000000e+02	8.36788471e+06
4.83000000e+02	8.42041374e+06
4.84000000e+02	8.47246077e+06
4.85000000e+02	8.52398828e+06
4.86000000e+02	8.57495723e+06
4.87000000e+02	8.62532702e+06
4.88000000e+02	8.67505543e+06
4.89000000e+02	8.72409864e+06
4.90000000e+02	8.77241115e+06
4.91000000e+02	8.81994581e+06
4.92000000e+02	8.86665376e+06
4.93000000e+02	8.91248447e+06
4.94000000e+02	8.95738568e+06
4.95000000e+02	9.00130346e+06
4.96000000e+02	9.04418217e+06
4.97000000e+02	9.08596453e+06
4.98000000e+02	9.12659160e+06
4.99000000e+02	9.16600288e+06
5.00000000e+02	9.20413631e+06
5.01000000e+02	9.24092836e+06
5.02000000e+02	9.27631409e+06
5.03000000e+02	9.31022729e+06
5.04000000e+02	9.34260050e+06
5.05000000e+02	9.37336521e+06
5.06000000e+02	9.40245197e+06
5.07000000e+02	9.42979053e+06
5.08000000e+02	9.45531001e+06
5.09000000e+02	9.47893914e+06
5.10000000e+02	9.50060638e+06
5.11000000e+02	9.52024023e+06
5.12000000e+02	9.53776940e+06
5.13000000e+02	9.55312314e+06
5.14000000e+02	9.56623146e+06
5.15000000e+02	9.57702545e+06
5.16000000e+02	9.58543760e+06
5.17000000e+02	9.59140211e+06
5.18000000e+02	9.59485524e+06
5.19000000e+02	9.59573563e+06
5.20000000e+02	9.59398472e+06
5.21000000e+02	9.58954707e+06
5.22000000e+02	9.58237074e+06
5.23000000e+02	9.57240767e+06
5.24000000e+02	9.55961407e+06
5.25000000e+02	9.54395075e+06
5.26000000e+02	9.52538352e+06
5.27000000e+02	9.50388351e+06
5.28000000e+02	9.47942750e+06
5.29000000e+02	9.45199826e+06
5.30000000e+02	9.42158480e+06
5.31000000e+02	9.38818267e+06
5.32000000e+02	9.35179413e+06
5.33000000e+02	9.31242840e+06
5.34000000e+02	9.27010177e+06
5.35000000e+02	9.22483773e+06
5.36000000e+02	9.17666702e+06
5.37000000e+02	9.12562766e+06
5.38000000e+02	9.07176489e+06
5.39000000e+02	9.01513114e+06
5.40000000e+02	8.95578583e+06
5.41000000e+02	8.89379525e+06
5.42000000e+02	8.82923226e+06
5.43000000e+02	8.76217607e+06
5.44000000e+02	8.69271188e+06
5.45000000e+02	8.62093051e+06
5.46000000e+02	8.54692800e+06
5.47000000e+02	8.47080514e+06
5.48000000e+02	8.39266703e+06
5.49000000e+02	8.31262254e+06
5.50000000e+02	8.23078382e+06
5.51000000e+02	8.14726571e+06
5.52000000e+02	8.06218524e+06
5.53000000e+02	7.97566105e+06
5.54000000e+02	7.88781283e+06
5.55000000e+02	7.79876076e+06
5.56000000e+02	7.70862502e+06
5.57000000e+02	7.61752520e+06
5.58000000e+02	7.52557987e+06
5.59000000e+02	7.43290604e+06
5.60000000e+02	7.33961875e+06
5.61000000e+02	7.24583063e+06
5.62000000e+02	7.15165153e+06
5.63000000e+02	7.05718817e+06
5.64000000e+02	6.96254381e+06
5.65000000e+02	6.86781798e+06
5.66000000e+02	6.77310627e+06
5.67000000e+02	6.67850009e+06
5.68000000e+02	6.58408653e+06
5.69000000e+02	6.48994822e+06
5.70000000e+02	6.39616325e+06
5.71000000e+02	6.30280511e+06
5.72000000e+02	6.20994265e+06
5.73000000e+02	6.11764010e+06
5.74000000e+02	6.02595709e+06
5.75000000e+02	5.93494868e+06
5.76000000e+02	5.84466548e+06
5.77000000e+02	5.75515371e+06
5.78000000e+02	5.66645533e+06
5.79000000e+02	5.57860817e+06
5.80000000e+02	5.49164604e+06
5.81000000e+02	5.40559894e+06
5.82000000e+02	5.32049315e+06
5.83000000e+02	5.23635147e+06
5.84000000e+02	5.15319331e+06
5.85000000e+02	5.07103495e+06
5.86000000e+02	4.98988964e+06
5.87000000e+02	4.90976783e+06
5.88000000e+02	4.83067733e+06
5.89000000e+02	4.75262346e+06
5.90000000e+02	4.67560926e+06
5.91000000e+02	4.59963560e+06
5.92000000e+02	4.52470141e+06
5.93000000e+02	4.45080379e+06
5.94000000e+02	4.37793818e+06
5.95000000e+02	4.30609847e+06
5.96000000e+02	4.23527719e+06
5.97000000e+02	4.16546561e+06
5.98000000e+02	4.09665387e+06
5.99000000e+02	4.02883110e+06
6.00000000e+02	3.96198553e+06
6.01000000e+02	3.89610460e+06
6.02000000e+02	3.83117503e+06
6.03000000e+02	3.76718299e+06
6.04000000e+02	3.70411406e+06
6.05000000e+02	3.64195346e+06
6.06000000e+02	3.58068597e+06
6.07000000e+02	3.52029614e+06
6.08000000e+02	3.46076823e+06
6.09000000e+02	3.40208637e+06
6.10000000e+02	3.34423455e+06
6.11000000e+02	3.28719668e+06
6.12000000e+02	3.23095665e+06
6.13000000e+02	3.17549835e+06
6.14000000e+02	3.12080573e+06
6.15000000e+02	3.06686282e+06
6.16000000e+02	3.01365374e+06
6.17000000e+02	2.96116276e+06
6.18000000e+02	2.90937430e+06
6.19000000e+02	2.85827294e+06
6.20000000e+02	2.80784350e+06
6.21000000e+02	2.75807097e+06
6.22000000e+02	2.70894058e+06
6.23000000e+02	2.66043779e+06
6.24000000e+02	2.61254830e+06
6.25000000e+02	2.56525805e+06
6.26000000e+02	2.51855324e+06
6.27000000e+02	2.47242033e+06
6.28000000e+02	2.42684603e+06
6.29000000e+02	2.38181732e+06
6.30000000e+02	2.33732146e+06
6.31000000e+02	2.29334597e+06
6.32000000e+02	2.24987866e+06
6.33000000e+02	2.20690760e+06
6.34000000e+02	2.16442110e+06
6.35000000e+02	2.12240777e+06
6.36000000e+02	2.08085639e+06
6.37000000e+02	2.03975604e+06
6.38000000e+02	1.99909599e+06
6.39000000e+02	1.95886581e+06
6.40000000e+02	1.91905523e+06
6.41000000e+02	1.87965427e+06
6.42000000e+02	1.84065315e+06
6.43000000e+02	1.80204230e+06
6.44000000e+02	1.76381239e+06
6.45000000e+02	1.72595424e+06
6.46000000e+02	1.68845888e+06
6.47000000e+02	1.65131750e+06
6.48000000e+02	1.61452149e+06
6.49000000e+02	1.57806248e+06
6.50000000e+02	1.54193223e+06
6.51000000e+02	1.50612266e+06
6.52000000e+02	1.47062577e+06
6.53000000e+02	1.43543367e+06
6.54000000e+02	1.40053867e+06
6.55000000e+02	1.36593325e+06
6.56000000e+02	1.33161000e+06
6.57000000e+02	1.29756156e+06
6.58000000e+02	1.26378070e+06
6.59000000e+02	1.23026034e+06
