# Profil de FluxX au temps 2.009999999999998e-12 
# simu : /Volumes/MERCURE/JOBS/Zeq2_tanh_50mic_1p5e20_B0_20ps/GNU/FluxX@y-c.set
# col 0 : abscisse (um)
# col 1 : FluxX (W/cm2)
0.00000000e+00	0.00000000e+00
1.00000000e+00	2.01415421e+05
2.00000000e+00	2.11685156e+05
3.00000000e+00	6.91700640e+05
4.00000000e+00	8.36044333e+05
5.00000000e+00	9.58523188e+05
6.00000000e+00	1.07516504e+06
7.00000000e+00	1.19114691e+06
8.00000000e+00	1.30810748e+06
9.00000000e+00	1.42654514e+06
1.00000000e+01	1.54673128e+06
1.10000000e+01	1.66890990e+06
1.20000000e+01	1.79330820e+06
1.30000000e+01	1.92010706e+06
1.40000000e+01	2.04942421e+06
1.50000000e+01	2.18132665e+06
1.60000000e+01	2.31588216e+06
1.70000000e+01	2.45320321e+06
1.80000000e+01	2.59347488e+06
1.90000000e+01	2.73693110e+06
2.00000000e+01	2.88384184e+06
2.10000000e+01	3.03450160e+06
2.20000000e+01	3.18924480e+06
2.30000000e+01	3.34845614e+06
2.40000000e+01	3.51256318e+06
2.50000000e+01	3.68200798e+06
2.60000000e+01	3.85720868e+06
2.70000000e+01	4.03852335e+06
2.80000000e+01	4.22624021e+06
2.90000000e+01	4.42058694e+06
3.00000000e+01	4.62176254e+06
3.10000000e+01	4.82997655e+06
3.20000000e+01	5.04549574e+06
3.30000000e+01	5.26867403e+06
3.40000000e+01	5.49996281e+06
3.50000000e+01	5.73990555e+06
3.60000000e+01	5.98910493e+06
3.70000000e+01	6.24819725e+06
3.80000000e+01	6.51782221e+06
3.90000000e+01	6.79860917e+06
4.00000000e+01	7.09116938e+06
4.10000000e+01	7.39607949e+06
4.20000000e+01	7.71386373e+06
4.30000000e+01	8.04497804e+06
4.40000000e+01	8.38981655e+06
4.50000000e+01	8.74871960e+06
4.60000000e+01	9.12201029e+06
4.70000000e+01	9.51002321e+06
4.80000000e+01	9.91314015e+06
4.90000000e+01	1.03318132e+07
5.00000000e+01	1.07665715e+07
5.10000000e+01	1.12180254e+07
5.20000000e+01	1.16868545e+07
5.30000000e+01	1.21738022e+07
5.40000000e+01	1.26796638e+07
5.50000000e+01	1.32052765e+07
5.60000000e+01	1.37515142e+07
5.70000000e+01	1.43192885e+07
5.80000000e+01	1.49095446e+07
5.90000000e+01	1.55232578e+07
6.00000000e+01	1.61614442e+07
6.10000000e+01	1.68251518e+07
6.20000000e+01	1.75154694e+07
6.30000000e+01	1.82335257e+07
6.40000000e+01	1.89804928e+07
6.50000000e+01	1.97575844e+07
6.60000000e+01	2.05660669e+07
6.70000000e+01	2.14072504e+07
6.80000000e+01	2.22825018e+07
6.90000000e+01	2.31932343e+07
7.00000000e+01	2.41409249e+07
7.10000000e+01	2.51271074e+07
7.20000000e+01	2.61533728e+07
7.30000000e+01	2.72213796e+07
7.40000000e+01	2.83328503e+07
7.50000000e+01	2.94895769e+07
7.60000000e+01	3.06934239e+07
7.70000000e+01	3.19463279e+07
7.80000000e+01	3.32503046e+07
7.90000000e+01	3.46074473e+07
8.00000000e+01	3.60199363e+07
8.10000000e+01	3.74900387e+07
8.20000000e+01	3.90201116e+07
8.30000000e+01	4.06126067e+07
8.40000000e+01	4.22700767e+07
8.50000000e+01	4.39951769e+07
8.60000000e+01	4.57906681e+07
8.70000000e+01	4.76594257e+07
8.80000000e+01	4.96044417e+07
8.90000000e+01	5.16288294e+07
9.00000000e+01	5.37358299e+07
9.10000000e+01	5.59288142e+07
9.20000000e+01	5.82112914e+07
9.30000000e+01	6.05869135e+07
9.40000000e+01	6.30594840e+07
9.50000000e+01	6.56329588e+07
9.60000000e+01	6.83114553e+07
9.70000000e+01	7.10992588e+07
9.80000000e+01	7.40008302e+07
9.90000000e+01	7.70208133e+07
1.00000000e+02	8.01640404e+07
1.01000000e+02	8.34355409e+07
1.02000000e+02	8.68405490e+07
1.03000000e+02	9.03845131e+07
1.04000000e+02	9.40731023e+07
1.05000000e+02	9.79122203e+07
1.06000000e+02	1.01908010e+08
1.07000000e+02	1.06066862e+08
1.08000000e+02	1.10395435e+08
1.09000000e+02	1.14900650e+08
1.10000000e+02	1.19589718e+08
1.11000000e+02	1.24470140e+08
1.12000000e+02	1.29549726e+08
1.13000000e+02	1.34836603e+08
1.14000000e+02	1.40339229e+08
1.15000000e+02	1.46066408e+08
1.16000000e+02	1.52027303e+08
1.17000000e+02	1.58231450e+08
1.18000000e+02	1.64688778e+08
1.19000000e+02	1.71409615e+08
1.20000000e+02	1.78404715e+08
1.21000000e+02	1.85685269e+08
1.22000000e+02	1.93262924e+08
1.23000000e+02	2.01149804e+08
1.24000000e+02	2.09358526e+08
1.25000000e+02	2.17902222e+08
1.26000000e+02	2.26794562e+08
1.27000000e+02	2.36049770e+08
1.28000000e+02	2.45682653e+08
1.29000000e+02	2.55708621e+08
1.30000000e+02	2.66143711e+08
1.31000000e+02	2.77004616e+08
1.32000000e+02	2.88308713e+08
1.33000000e+02	3.00074082e+08
1.34000000e+02	3.12319543e+08
1.35000000e+02	3.25064686e+08
1.36000000e+02	3.38329897e+08
1.37000000e+02	3.52136392e+08
1.38000000e+02	3.66506257e+08
1.39000000e+02	3.81462476e+08
1.40000000e+02	3.97028972e+08
1.41000000e+02	4.13230641e+08
1.42000000e+02	4.30093398e+08
1.43000000e+02	4.47644211e+08
1.44000000e+02	4.65911151e+08
1.45000000e+02	4.84923432e+08
1.46000000e+02	5.04711459e+08
1.47000000e+02	5.25306878e+08
1.48000000e+02	5.46742624e+08
1.49000000e+02	5.69052978e+08
1.50000000e+02	5.92273616e+08
1.51000000e+02	6.16441667e+08
1.52000000e+02	6.41595778e+08
1.53000000e+02	6.67776169e+08
1.54000000e+02	6.95024698e+08
1.55000000e+02	7.23384935e+08
1.56000000e+02	7.52902221e+08
1.57000000e+02	7.83623745e+08
1.58000000e+02	8.15598622e+08
1.59000000e+02	8.48877967e+08
1.60000000e+02	8.83514981e+08
1.61000000e+02	9.19565029e+08
1.62000000e+02	9.57085733e+08
1.63000000e+02	9.96137067e+08
1.64000000e+02	1.03678144e+09
1.65000000e+02	1.07908382e+09
1.66000000e+02	1.12311180e+09
1.67000000e+02	1.16893574e+09
1.68000000e+02	1.21662887e+09
1.69000000e+02	1.26626738e+09
1.70000000e+02	1.31793060e+09
1.71000000e+02	1.37170106e+09
1.72000000e+02	1.42766465e+09
1.73000000e+02	1.48591078e+09
1.74000000e+02	1.54653249e+09
1.75000000e+02	1.60962659e+09
1.76000000e+02	1.67529386e+09
1.77000000e+02	1.74363916e+09
1.78000000e+02	1.81477162e+09
1.79000000e+02	1.88880483e+09
1.80000000e+02	1.96585697e+09
1.81000000e+02	2.04605105e+09
1.82000000e+02	2.12951508e+09
1.83000000e+02	2.21638227e+09
1.84000000e+02	2.30679126e+09
1.85000000e+02	2.40088630e+09
1.86000000e+02	2.49881753e+09
1.87000000e+02	2.60074118e+09
1.88000000e+02	2.70681983e+09
1.89000000e+02	2.81722268e+09
1.90000000e+02	2.93212579e+09
1.91000000e+02	3.05171236e+09
1.92000000e+02	3.17617305e+09
1.93000000e+02	3.30570624e+09
1.94000000e+02	3.44051840e+09
1.95000000e+02	3.58082434e+09
1.96000000e+02	3.72684760e+09
1.97000000e+02	3.87882078e+09
1.98000000e+02	4.03698593e+09
1.99000000e+02	4.20159490e+09
2.00000000e+02	4.37290976e+09
2.01000000e+02	4.55120318e+09
2.02000000e+02	4.73675889e+09
2.03000000e+02	4.92987211e+09
2.04000000e+02	5.13085000e+09
2.05000000e+02	5.34001216e+09
2.06000000e+02	5.55769113e+09
2.07000000e+02	5.78423287e+09
2.08000000e+02	6.01999737e+09
2.09000000e+02	6.26535912e+09
2.10000000e+02	6.52070776e+09
2.11000000e+02	6.78644868e+09
2.12000000e+02	7.06300360e+09
2.13000000e+02	7.35081127e+09
2.14000000e+02	7.65032814e+09
2.15000000e+02	7.96202904e+09
2.16000000e+02	8.28640794e+09
2.17000000e+02	8.62397869e+09
2.18000000e+02	8.97527582e+09
2.19000000e+02	9.34085537e+09
2.20000000e+02	9.72129571e+09
2.21000000e+02	1.01171984e+10
2.22000000e+02	1.05291893e+10
2.23000000e+02	1.09579192e+10
2.24000000e+02	1.14040651e+10
2.25000000e+02	1.18683311e+10
2.26000000e+02	1.23514493e+10
2.27000000e+02	1.28541814e+10
2.28000000e+02	1.33773192e+10
2.29000000e+02	1.39216865e+10
2.30000000e+02	1.44881396e+10
2.31000000e+02	1.50775691e+10
2.32000000e+02	1.56909011e+10
2.33000000e+02	1.63290985e+10
2.34000000e+02	1.69931623e+10
2.35000000e+02	1.76841335e+10
2.36000000e+02	1.84030943e+10
2.37000000e+02	1.91511695e+10
2.38000000e+02	1.99295286e+10
2.39000000e+02	2.07393875e+10
2.40000000e+02	2.15820097e+10
2.41000000e+02	2.24587086e+10
2.42000000e+02	2.33708493e+10
2.43000000e+02	2.43198506e+10
2.44000000e+02	2.53071867e+10
2.45000000e+02	2.63343897e+10
2.46000000e+02	2.74030516e+10
2.47000000e+02	2.85148264e+10
2.48000000e+02	2.96714325e+10
2.49000000e+02	3.08746553e+10
2.50000000e+02	3.21263493e+10
2.51000000e+02	3.34284408e+10
2.52000000e+02	3.47829305e+10
2.53000000e+02	3.61918963e+10
2.54000000e+02	3.76574958e+10
2.55000000e+02	3.91819696e+10
2.56000000e+02	4.07676440e+10
2.57000000e+02	4.24169339e+10
2.58000000e+02	4.41323462e+10
2.59000000e+02	4.59164829e+10
2.60000000e+02	4.77720446e+10
2.61000000e+02	4.97018335e+10
2.62000000e+02	5.17087572e+10
2.63000000e+02	5.37958325e+10
2.64000000e+02	5.59661885e+10
2.65000000e+02	5.82230708e+10
2.66000000e+02	6.05698454e+10
2.67000000e+02	6.30100024e+10
2.68000000e+02	6.55471603e+10
2.69000000e+02	6.81850699e+10
2.70000000e+02	7.09276187e+10
2.71000000e+02	7.37788353e+10
2.72000000e+02	7.67428936e+10
2.73000000e+02	7.98241173e+10
2.74000000e+02	8.30269846e+10
2.75000000e+02	8.63561328e+10
2.76000000e+02	8.98163629e+10
2.77000000e+02	9.34126444e+10
2.78000000e+02	9.71501202e+10
2.79000000e+02	1.01034111e+11
2.80000000e+02	1.05070122e+11
2.81000000e+02	1.09263845e+11
2.82000000e+02	1.13621166e+11
2.83000000e+02	1.18148167e+11
2.84000000e+02	1.22851137e+11
2.85000000e+02	1.27736568e+11
2.86000000e+02	1.32811171e+11
2.87000000e+02	1.38081870e+11
2.88000000e+02	1.43555814e+11
2.89000000e+02	1.49240380e+11
2.90000000e+02	1.55143178e+11
2.91000000e+02	1.61272055e+11
2.92000000e+02	1.67635099e+11
2.93000000e+02	1.74240645e+11
2.94000000e+02	1.81097279e+11
2.95000000e+02	1.88213842e+11
2.96000000e+02	1.95599432e+11
2.97000000e+02	2.03263410e+11
2.98000000e+02	2.11215404e+11
2.99000000e+02	2.19465310e+11
3.00000000e+02	2.28023294e+11
3.01000000e+02	2.36899798e+11
3.02000000e+02	2.46105539e+11
3.03000000e+02	2.55651513e+11
3.04000000e+02	2.65548994e+11
3.05000000e+02	2.75809534e+11
3.06000000e+02	2.86444967e+11
3.07000000e+02	2.97467406e+11
3.08000000e+02	3.08889240e+11
3.09000000e+02	3.20723138e+11
3.10000000e+02	3.32982038e+11
3.11000000e+02	3.45679154e+11
3.12000000e+02	3.58827963e+11
3.13000000e+02	3.72442206e+11
3.14000000e+02	3.86535878e+11
3.15000000e+02	4.01123226e+11
3.16000000e+02	4.16218736e+11
3.17000000e+02	4.31837130e+11
3.18000000e+02	4.47993350e+11
3.19000000e+02	4.64702552e+11
3.20000000e+02	4.81980091e+11
3.21000000e+02	4.99841509e+11
3.22000000e+02	5.18302519e+11
3.23000000e+02	5.37378991e+11
3.24000000e+02	5.57086932e+11
3.25000000e+02	5.77442468e+11
3.26000000e+02	5.98461825e+11
3.27000000e+02	6.20161307e+11
3.28000000e+02	6.42557269e+11
3.29000000e+02	6.65666099e+11
3.30000000e+02	6.89504183e+11
3.31000000e+02	7.14087884e+11
3.32000000e+02	7.39433511e+11
3.33000000e+02	7.65557284e+11
3.34000000e+02	7.92475304e+11
3.35000000e+02	8.20203518e+11
3.36000000e+02	8.48757683e+11
3.37000000e+02	8.78153327e+11
3.38000000e+02	9.08405710e+11
3.39000000e+02	9.39529784e+11
3.40000000e+02	9.71540150e+11
3.41000000e+02	1.00445101e+12
3.42000000e+02	1.03827613e+12
3.43000000e+02	1.07302879e+12
3.44000000e+02	1.10872172e+12
3.45000000e+02	1.14536708e+12
3.46000000e+02	1.18297638e+12
3.47000000e+02	1.22156046e+12
3.48000000e+02	1.26112940e+12
3.49000000e+02	1.30169249e+12
3.50000000e+02	1.34325818e+12
3.51000000e+02	1.38583401e+12
3.52000000e+02	1.42942655e+12
3.53000000e+02	1.47404136e+12
3.54000000e+02	1.51968295e+12
3.55000000e+02	1.56635467e+12
3.56000000e+02	1.61405870e+12
3.57000000e+02	1.66279598e+12
3.58000000e+02	1.71256615e+12
3.59000000e+02	1.76336751e+12
3.60000000e+02	1.81519693e+12
3.61000000e+02	1.86804986e+12
3.62000000e+02	1.92192020e+12
3.63000000e+02	1.97680031e+12
3.64000000e+02	2.03268096e+12
3.65000000e+02	2.08955122e+12
3.66000000e+02	2.14739848e+12
3.67000000e+02	2.20620839e+12
3.68000000e+02	2.26596481e+12
3.69000000e+02	2.32664976e+12
3.70000000e+02	2.38824341e+12
3.71000000e+02	2.45072404e+12
3.72000000e+02	2.51406799e+12
3.73000000e+02	2.57824966e+12
3.74000000e+02	2.64324147e+12
3.75000000e+02	2.70901384e+12
3.76000000e+02	2.77553518e+12
3.77000000e+02	2.84277189e+12
3.78000000e+02	2.91068830e+12
3.79000000e+02	2.97924673e+12
3.80000000e+02	3.04840745e+12
3.81000000e+02	3.11812868e+12
3.82000000e+02	3.18836662e+12
3.83000000e+02	3.25907546e+12
3.84000000e+02	3.33020736e+12
3.85000000e+02	3.40171252e+12
3.86000000e+02	3.47353917e+12
3.87000000e+02	3.54563361e+12
3.88000000e+02	3.61794025e+12
3.89000000e+02	3.69040163e+12
3.90000000e+02	3.76295847e+12
3.91000000e+02	3.83554975e+12
3.92000000e+02	3.90811270e+12
3.93000000e+02	3.98058289e+12
3.94000000e+02	4.05289428e+12
3.95000000e+02	4.12497932e+12
3.96000000e+02	4.19676895e+12
3.97000000e+02	4.26819272e+12
3.98000000e+02	4.33917886e+12
3.99000000e+02	4.40965432e+12
4.00000000e+02	4.47954493e+12
4.01000000e+02	4.54877540e+12
4.02000000e+02	4.61726946e+12
4.03000000e+02	4.68494996e+12
4.04000000e+02	4.75173891e+12
4.05000000e+02	4.81755765e+12
4.06000000e+02	4.88232689e+12
4.07000000e+02	4.94596687e+12
4.08000000e+02	5.00839740e+12
4.09000000e+02	5.06953805e+12
4.10000000e+02	5.12930819e+12
4.11000000e+02	5.18762713e+12
4.12000000e+02	5.24441426e+12
4.13000000e+02	5.29958914e+12
4.14000000e+02	5.35307161e+12
4.15000000e+02	5.40478195e+12
4.16000000e+02	5.45464098e+12
4.17000000e+02	5.50257016e+12
4.18000000e+02	5.54849178e+12
4.19000000e+02	5.59232902e+12
4.20000000e+02	5.63400614e+12
4.21000000e+02	5.67344856e+12
4.22000000e+02	5.71058303e+12
4.23000000e+02	5.74533772e+12
4.24000000e+02	5.77764240e+12
4.25000000e+02	5.80742858e+12
4.26000000e+02	5.83462958e+12
4.27000000e+02	5.85918076e+12
4.28000000e+02	5.88101958e+12
4.29000000e+02	5.90008579e+12
4.30000000e+02	5.91632156e+12
4.31000000e+02	5.92967163e+12
4.32000000e+02	5.94008343e+12
4.33000000e+02	5.94750728e+12
4.34000000e+02	5.95189647e+12
4.35000000e+02	5.95320747e+12
4.36000000e+02	5.95140006e+12
4.37000000e+02	5.94643748e+12
4.38000000e+02	5.93828658e+12
4.39000000e+02	5.92691800e+12
4.40000000e+02	5.91230630e+12
4.41000000e+02	5.89443016e+12
4.42000000e+02	5.87327248e+12
4.43000000e+02	5.84882061e+12
4.44000000e+02	5.82106645e+12
4.45000000e+02	5.79000666e+12
4.46000000e+02	5.75564280e+12
4.47000000e+02	5.71798147e+12
4.48000000e+02	5.67703450e+12
4.49000000e+02	5.63281912e+12
4.50000000e+02	5.58535806e+12
4.51000000e+02	5.53467972e+12
4.52000000e+02	5.48081835e+12
4.53000000e+02	5.42381411e+12
4.54000000e+02	5.36371329e+12
4.55000000e+02	5.30056834e+12
4.56000000e+02	5.23443802e+12
4.57000000e+02	5.16538749e+12
4.58000000e+02	5.09348838e+12
4.59000000e+02	5.01881885e+12
4.60000000e+02	4.94146363e+12
4.61000000e+02	4.86151404e+12
4.62000000e+02	4.77906798e+12
4.63000000e+02	4.69422989e+12
4.64000000e+02	4.60711074e+12
4.65000000e+02	4.51782785e+12
4.66000000e+02	4.42650487e+12
4.67000000e+02	4.33327153e+12
4.68000000e+02	4.23826352e+12
4.69000000e+02	4.14162218e+12
4.70000000e+02	4.04349432e+12
4.71000000e+02	3.94403182e+12
4.72000000e+02	3.84339134e+12
4.73000000e+02	3.74173387e+12
4.74000000e+02	3.63922432e+12
4.75000000e+02	3.53603103e+12
4.76000000e+02	3.43232523e+12
4.77000000e+02	3.32828049e+12
4.78000000e+02	3.22407210e+12
4.79000000e+02	3.11987644e+12
4.80000000e+02	3.01587027e+12
4.81000000e+02	2.91223004e+12
4.82000000e+02	2.80913117e+12
4.83000000e+02	2.70674724e+12
4.84000000e+02	2.60524924e+12
4.85000000e+02	2.50480478e+12
4.86000000e+02	2.40557725e+12
4.87000000e+02	2.30772508e+12
4.88000000e+02	2.21140089e+12
4.89000000e+02	2.11675073e+12
4.90000000e+02	2.02391333e+12
4.91000000e+02	1.93301939e+12
4.92000000e+02	1.84419084e+12
4.93000000e+02	1.75754026e+12
4.94000000e+02	1.67317029e+12
4.95000000e+02	1.59117307e+12
4.96000000e+02	1.51162987e+12
4.97000000e+02	1.43461069e+12
4.98000000e+02	1.36017402e+12
4.99000000e+02	1.28836663e+12
5.00000000e+02	1.21922353e+12
5.01000000e+02	1.15276800e+12
5.02000000e+02	1.08901170e+12
5.03000000e+02	1.02795493e+12
5.04000000e+02	9.69586979e+11
5.05000000e+02	9.13886536e+11
5.06000000e+02	8.60822257e+11
5.07000000e+02	8.10353371e+11
5.08000000e+02	7.62430378e+11
5.09000000e+02	7.16995813e+11
5.10000000e+02	6.73985064e+11
5.11000000e+02	6.33327224e+11
5.12000000e+02	5.94945976e+11
5.13000000e+02	5.58760483e+11
5.14000000e+02	5.24686286e+11
5.15000000e+02	4.92636174e+11
5.16000000e+02	4.62521033e+11
5.17000000e+02	4.34250656e+11
5.18000000e+02	4.07734493e+11
5.19000000e+02	3.82882357e+11
5.20000000e+02	3.59605054e+11
5.21000000e+02	3.37814944e+11
5.22000000e+02	3.17426439e+11
5.23000000e+02	2.98356415e+11
5.24000000e+02	2.80524561e+11
5.25000000e+02	2.63853653e+11
5.26000000e+02	2.48269764e+11
5.27000000e+02	2.33702412e+11
5.28000000e+02	2.20084647e+11
5.29000000e+02	2.07353095e+11
5.30000000e+02	1.95447953e+11
5.31000000e+02	1.84312945e+11
5.32000000e+02	1.73895249e+11
5.33000000e+02	1.64145396e+11
5.34000000e+02	1.55017153e+11
5.35000000e+02	1.46467381e+11
5.36000000e+02	1.38455896e+11
5.37000000e+02	1.30945310e+11
5.38000000e+02	1.23900875e+11
5.39000000e+02	1.17290330e+11
5.40000000e+02	1.11083737e+11
5.41000000e+02	1.05253337e+11
5.42000000e+02	9.97733979e+10
5.43000000e+02	9.46200729e+10
5.44000000e+02	8.97712685e+10
5.45000000e+02	8.52065151e+10
5.46000000e+02	8.09068474e+10
5.47000000e+02	7.68546916e+10
5.48000000e+02	7.30337608e+10
5.49000000e+02	6.94289563e+10
5.50000000e+02	6.60262769e+10
5.51000000e+02	6.28127346e+10
5.52000000e+02	5.97762766e+10
5.53000000e+02	5.69057130e+10
5.54000000e+02	5.41906503e+10
5.55000000e+02	5.16214301e+10
5.56000000e+02	4.91890729e+10
5.57000000e+02	4.68852254e+10
5.58000000e+02	4.47021133e+10
5.59000000e+02	4.26324968e+10
5.60000000e+02	4.06696304e+10
5.61000000e+02	3.88072252e+10
5.62000000e+02	3.70394152e+10
5.63000000e+02	3.53607251e+10
5.64000000e+02	3.37660419e+10
5.65000000e+02	3.22505875e+10
5.66000000e+02	3.08098950e+10
5.67000000e+02	2.94397851e+10
5.68000000e+02	2.81363459e+10
5.69000000e+02	2.68959137e+10
5.70000000e+02	2.57150547e+10
5.71000000e+02	2.45905493e+10
5.72000000e+02	2.35193769e+10
5.73000000e+02	2.24987016e+10
5.74000000e+02	2.15258601e+10
5.75000000e+02	2.05983490e+10
5.76000000e+02	1.97138146e+10
5.77000000e+02	1.88700424e+10
5.78000000e+02	1.80649476e+10
5.79000000e+02	1.72965670e+10
5.80000000e+02	1.65630502e+10
5.81000000e+02	1.58626530e+10
5.82000000e+02	1.51937297e+10
5.83000000e+02	1.45547275e+10
5.84000000e+02	1.39441798e+10
5.85000000e+02	1.33607014e+10
5.86000000e+02	1.28029828e+10
5.87000000e+02	1.22697860e+10
5.88000000e+02	1.17599396e+10
5.89000000e+02	1.12723351e+10
5.90000000e+02	1.08059227e+10
5.91000000e+02	1.03597079e+10
5.92000000e+02	9.93274858e+09
5.93000000e+02	9.52415110e+09
5.94000000e+02	9.13306809e+09
5.95000000e+02	8.75869547e+09
5.96000000e+02	8.40026999e+09
5.97000000e+02	8.05706691e+09
5.98000000e+02	7.72839775e+09
5.99000000e+02	7.41360827e+09
6.00000000e+02	7.11207656e+09
6.01000000e+02	6.82321122e+09
6.02000000e+02	6.54644966e+09
6.03000000e+02	6.28125656e+09
6.04000000e+02	6.02712238e+09
6.05000000e+02	5.78356193e+09
6.06000000e+02	5.55011311e+09
6.07000000e+02	5.32633567e+09
6.08000000e+02	5.11181004e+09
6.09000000e+02	4.90613629e+09
6.10000000e+02	4.70893306e+09
6.11000000e+02	4.51983662e+09
6.12000000e+02	4.33850001e+09
6.13000000e+02	4.16459210e+09
6.14000000e+02	3.99779689e+09
6.15000000e+02	3.83781266e+09
6.16000000e+02	3.68435132e+09
6.17000000e+02	3.53713772e+09
6.18000000e+02	3.39590901e+09
6.19000000e+02	3.26041402e+09
6.20000000e+02	3.13041273e+09
6.21000000e+02	3.00567571e+09
6.22000000e+02	2.88598363e+09
6.23000000e+02	2.77112673e+09
6.24000000e+02	2.66090445e+09
6.25000000e+02	2.55512490e+09
6.26000000e+02	2.45360453e+09
6.27000000e+02	2.35616771e+09
6.28000000e+02	2.26264637e+09
6.29000000e+02	2.17287962e+09
6.30000000e+02	2.08671349e+09
6.31000000e+02	2.00400054e+09
6.32000000e+02	1.92459961e+09
6.33000000e+02	1.84837551e+09
6.34000000e+02	1.77519878e+09
6.35000000e+02	1.70494541e+09
6.36000000e+02	1.63749659e+09
6.37000000e+02	1.57273850e+09
6.38000000e+02	1.51056208e+09
6.39000000e+02	1.45086283e+09
6.40000000e+02	1.39354059e+09
6.41000000e+02	1.33849937e+09
6.42000000e+02	1.28564715e+09
6.43000000e+02	1.23489572e+09
6.44000000e+02	1.18616051e+09
6.45000000e+02	1.13936045e+09
6.46000000e+02	1.09441779e+09
6.47000000e+02	1.05125798e+09
6.48000000e+02	1.00980952e+09
6.49000000e+02	9.70003837e+08
6.50000000e+02	9.31775170e+08
6.51000000e+02	8.95060432e+08
6.52000000e+02	8.59799106e+08
6.53000000e+02	8.25933139e+08
6.54000000e+02	7.93406835e+08
6.55000000e+02	7.62166755e+08
6.56000000e+02	7.32161630e+08
6.57000000e+02	7.03342254e+08
6.58000000e+02	6.75661404e+08
6.59000000e+02	6.49073748e+08
