# Profil de FluxX au temps 5.000000000000045e-12 
# simu : /Volumes/MERCURE/JOBS/Zeq2_tanh_50mic_1p5e20_B0_20ps/GNU/FluxX@y-c.set
# col 0 : abscisse (um)
# col 1 : FluxX (W/cm2)
0.00000000e+00	0.00000000e+00
1.00000000e+00	2.95511150e+06
2.00000000e+00	5.72465331e+06
3.00000000e+00	8.97285666e+06
4.00000000e+00	1.18990093e+07
5.00000000e+00	1.48213867e+07
6.00000000e+00	1.77603921e+07
7.00000000e+00	2.07256180e+07
8.00000000e+00	2.37231822e+07
9.00000000e+00	2.67581323e+07
1.00000000e+01	2.98353583e+07
1.10000000e+01	3.29597968e+07
1.20000000e+01	3.61364583e+07
1.30000000e+01	3.93704399e+07
1.40000000e+01	4.26669322e+07
1.50000000e+01	4.60312227e+07
1.60000000e+01	4.94687081e+07
1.70000000e+01	5.29849020e+07
1.80000000e+01	5.65854377e+07
1.90000000e+01	6.02760876e+07
2.00000000e+01	6.40627680e+07
2.10000000e+01	6.79515454e+07
2.20000000e+01	7.19486472e+07
2.30000000e+01	7.60604761e+07
2.40000000e+01	8.02936159e+07
2.50000000e+01	8.46548449e+07
2.60000000e+01	8.91511445e+07
2.70000000e+01	9.37897107e+07
2.80000000e+01	9.85779684e+07
2.90000000e+01	1.03523579e+08
3.00000000e+01	1.08634456e+08
3.10000000e+01	1.13918776e+08
3.20000000e+01	1.19384991e+08
3.30000000e+01	1.25041844e+08
3.40000000e+01	1.30898383e+08
3.50000000e+01	1.36963973e+08
3.60000000e+01	1.43248314e+08
3.70000000e+01	1.49761452e+08
3.80000000e+01	1.56513798e+08
3.90000000e+01	1.63516148e+08
4.00000000e+01	1.70779692e+08
4.10000000e+01	1.78316039e+08
4.20000000e+01	1.86137231e+08
4.30000000e+01	1.94255765e+08
4.40000000e+01	2.02684610e+08
4.50000000e+01	2.11437230e+08
4.60000000e+01	2.20527606e+08
4.70000000e+01	2.29970253e+08
4.80000000e+01	2.39780251e+08
4.90000000e+01	2.49973262e+08
5.00000000e+01	2.60565558e+08
5.10000000e+01	2.71574049e+08
5.20000000e+01	2.83016303e+08
5.30000000e+01	2.94910580e+08
5.40000000e+01	3.07275863e+08
5.50000000e+01	3.20131879e+08
5.60000000e+01	3.33499141e+08
5.70000000e+01	3.47398971e+08
5.80000000e+01	3.61853539e+08
5.90000000e+01	3.76885898e+08
6.00000000e+01	3.92520020e+08
6.10000000e+01	4.08780830e+08
6.20000000e+01	4.25694249e+08
6.30000000e+01	4.43287236e+08
6.40000000e+01	4.61587827e+08
6.50000000e+01	4.80625179e+08
6.60000000e+01	5.00429617e+08
6.70000000e+01	5.21032684e+08
6.80000000e+01	5.42467185e+08
6.90000000e+01	5.64767241e+08
7.00000000e+01	5.87968344e+08
7.10000000e+01	6.12107410e+08
7.20000000e+01	6.37222837e+08
7.30000000e+01	6.63354567e+08
7.40000000e+01	6.90544148e+08
7.50000000e+01	7.18834795e+08
7.60000000e+01	7.48271462e+08
7.70000000e+01	7.78900910e+08
7.80000000e+01	8.10771783e+08
7.90000000e+01	8.43934676e+08
8.00000000e+01	8.78442224e+08
8.10000000e+01	9.14349176e+08
8.20000000e+01	9.51712483e+08
8.30000000e+01	9.90591386e+08
8.40000000e+01	1.03104751e+09
8.50000000e+01	1.07314494e+09
8.60000000e+01	1.11695037e+09
8.70000000e+01	1.16253313e+09
8.80000000e+01	1.20996538e+09
8.90000000e+01	1.25932214e+09
9.00000000e+01	1.31068146e+09
9.10000000e+01	1.36412450e+09
9.20000000e+01	1.41973568e+09
9.30000000e+01	1.47760282e+09
9.40000000e+01	1.53781722e+09
9.50000000e+01	1.60047385e+09
9.60000000e+01	1.66567147e+09
9.70000000e+01	1.73351279e+09
9.80000000e+01	1.80410458e+09
9.90000000e+01	1.87755791e+09
1.00000000e+02	1.95398823e+09
1.01000000e+02	2.03351560e+09
1.02000000e+02	2.11626485e+09
1.03000000e+02	2.20236575e+09
1.04000000e+02	2.29195322e+09
1.05000000e+02	2.38516754e+09
1.06000000e+02	2.48215450e+09
1.07000000e+02	2.58306570e+09
1.08000000e+02	2.68805869e+09
1.09000000e+02	2.79729725e+09
1.10000000e+02	2.91095161e+09
1.11000000e+02	3.02919871e+09
1.12000000e+02	3.15222244e+09
1.13000000e+02	3.28021389e+09
1.14000000e+02	3.41337166e+09
1.15000000e+02	3.55190215e+09
1.16000000e+02	3.69601977e+09
1.17000000e+02	3.84594734e+09
1.18000000e+02	4.00191636e+09
1.19000000e+02	4.16416732e+09
1.20000000e+02	4.33295005e+09
1.21000000e+02	4.50852407e+09
1.22000000e+02	4.69115893e+09
1.23000000e+02	4.88113458e+09
1.24000000e+02	5.07874177e+09
1.25000000e+02	5.28428240e+09
1.26000000e+02	5.49806999e+09
1.27000000e+02	5.72043001e+09
1.28000000e+02	5.95170039e+09
1.29000000e+02	6.19223192e+09
1.30000000e+02	6.44238872e+09
1.31000000e+02	6.70254870e+09
1.32000000e+02	6.97310406e+09
1.33000000e+02	7.25446181e+09
1.34000000e+02	7.54704421e+09
1.35000000e+02	7.85128938e+09
1.36000000e+02	8.16765182e+09
1.37000000e+02	8.49660296e+09
1.38000000e+02	8.83863172e+09
1.39000000e+02	9.19424516e+09
1.40000000e+02	9.56396902e+09
1.41000000e+02	9.94834841e+09
1.42000000e+02	1.03479484e+10
1.43000000e+02	1.07633547e+10
1.44000000e+02	1.11951743e+10
1.45000000e+02	1.16440362e+10
1.46000000e+02	1.21105923e+10
1.47000000e+02	1.25955176e+10
1.48000000e+02	1.30995116e+10
1.49000000e+02	1.36232986e+10
1.50000000e+02	1.41676286e+10
1.51000000e+02	1.47332782e+10
1.52000000e+02	1.53210513e+10
1.53000000e+02	1.59317799e+10
1.54000000e+02	1.65663253e+10
1.55000000e+02	1.72255782e+10
1.56000000e+02	1.79104605e+10
1.57000000e+02	1.86219256e+10
1.58000000e+02	1.93609595e+10
1.59000000e+02	2.01285816e+10
1.60000000e+02	2.09258460e+10
1.61000000e+02	2.17538420e+10
1.62000000e+02	2.26136955e+10
1.63000000e+02	2.35065695e+10
1.64000000e+02	2.44336659e+10
1.65000000e+02	2.53962255e+10
1.66000000e+02	2.63955300e+10
1.67000000e+02	2.74329023e+10
1.68000000e+02	2.85097081e+10
1.69000000e+02	2.96273566e+10
1.70000000e+02	3.07873018e+10
1.71000000e+02	3.19910436e+10
1.72000000e+02	3.32401284e+10
1.73000000e+02	3.45361512e+10
1.74000000e+02	3.58807557e+10
1.75000000e+02	3.72756359e+10
1.76000000e+02	3.87225371e+10
1.77000000e+02	4.02232573e+10
1.78000000e+02	4.17796477e+10
1.79000000e+02	4.33936143e+10
1.80000000e+02	4.50671190e+10
1.81000000e+02	4.68021803e+10
1.82000000e+02	4.86008749e+10
1.83000000e+02	5.04653382e+10
1.84000000e+02	5.23977660e+10
1.85000000e+02	5.44004150e+10
1.86000000e+02	5.64756041e+10
1.87000000e+02	5.86257154e+10
1.88000000e+02	6.08531950e+10
1.89000000e+02	6.31605541e+10
1.90000000e+02	6.55503699e+10
1.91000000e+02	6.80252867e+10
1.92000000e+02	7.05880162e+10
1.93000000e+02	7.32413388e+10
1.94000000e+02	7.59881042e+10
1.95000000e+02	7.88312322e+10
1.96000000e+02	8.17737132e+10
1.97000000e+02	8.48186090e+10
1.98000000e+02	8.79690534e+10
1.99000000e+02	9.12282525e+10
2.00000000e+02	9.45994851e+10
2.01000000e+02	9.80861037e+10
2.02000000e+02	1.01691534e+11
2.03000000e+02	1.05419275e+11
2.04000000e+02	1.09272900e+11
2.05000000e+02	1.13256058e+11
2.06000000e+02	1.17372468e+11
2.07000000e+02	1.21625927e+11
2.08000000e+02	1.26020303e+11
2.09000000e+02	1.30559538e+11
2.10000000e+02	1.35247648e+11
2.11000000e+02	1.40088720e+11
2.12000000e+02	1.45086912e+11
2.13000000e+02	1.50246457e+11
2.14000000e+02	1.55571654e+11
2.15000000e+02	1.61066873e+11
2.16000000e+02	1.66736552e+11
2.17000000e+02	1.72585197e+11
2.18000000e+02	1.78617378e+11
2.19000000e+02	1.84837729e+11
2.20000000e+02	1.91250950e+11
2.21000000e+02	1.97861796e+11
2.22000000e+02	2.04675087e+11
2.23000000e+02	2.11695694e+11
2.24000000e+02	2.18928548e+11
2.25000000e+02	2.26378628e+11
2.26000000e+02	2.34050966e+11
2.27000000e+02	2.41950639e+11
2.28000000e+02	2.50082771e+11
2.29000000e+02	2.58452524e+11
2.30000000e+02	2.67065101e+11
2.31000000e+02	2.75925740e+11
2.32000000e+02	2.85039709e+11
2.33000000e+02	2.94412307e+11
2.34000000e+02	3.04048855e+11
2.35000000e+02	3.13954695e+11
2.36000000e+02	3.24135188e+11
2.37000000e+02	3.34595703e+11
2.38000000e+02	3.45341622e+11
2.39000000e+02	3.56378328e+11
2.40000000e+02	3.67711202e+11
2.41000000e+02	3.79345622e+11
2.42000000e+02	3.91286953e+11
2.43000000e+02	4.03540547e+11
2.44000000e+02	4.16111732e+11
2.45000000e+02	4.29005813e+11
2.46000000e+02	4.42228061e+11
2.47000000e+02	4.55783711e+11
2.48000000e+02	4.69677956e+11
2.49000000e+02	4.83915939e+11
2.50000000e+02	4.98502750e+11
2.51000000e+02	5.13443420e+11
2.52000000e+02	5.28742909e+11
2.53000000e+02	5.44406111e+11
2.54000000e+02	5.60437837e+11
2.55000000e+02	5.76842815e+11
2.56000000e+02	5.93625681e+11
2.57000000e+02	6.10790974e+11
2.58000000e+02	6.28343131e+11
2.59000000e+02	6.46286477e+11
2.60000000e+02	6.64625219e+11
2.61000000e+02	6.83363445e+11
2.62000000e+02	7.02505110e+11
2.63000000e+02	7.22054035e+11
2.64000000e+02	7.42013898e+11
2.65000000e+02	7.62388228e+11
2.66000000e+02	7.83180401e+11
2.67000000e+02	8.04393629e+11
2.68000000e+02	8.26030958e+11
2.69000000e+02	8.48095262e+11
2.70000000e+02	8.70589231e+11
2.71000000e+02	8.93515374e+11
2.72000000e+02	9.16876007e+11
2.73000000e+02	9.40673247e+11
2.74000000e+02	9.64909011e+11
2.75000000e+02	9.89585007e+11
2.76000000e+02	1.01470273e+12
2.77000000e+02	1.04026345e+12
2.78000000e+02	1.06626822e+12
2.79000000e+02	1.09271788e+12
2.80000000e+02	1.11961299e+12
2.81000000e+02	1.14695393e+12
2.82000000e+02	1.17474080e+12
2.83000000e+02	1.20297347e+12
2.84000000e+02	1.23165155e+12
2.85000000e+02	1.26077441e+12
2.86000000e+02	1.29034115e+12
2.87000000e+02	1.32035063e+12
2.88000000e+02	1.35080143e+12
2.89000000e+02	1.38169188e+12
2.90000000e+02	1.41302003e+12
2.91000000e+02	1.44478367e+12
2.92000000e+02	1.47698032e+12
2.93000000e+02	1.50960723e+12
2.94000000e+02	1.54266138e+12
2.95000000e+02	1.57613945e+12
2.96000000e+02	1.61003790e+12
2.97000000e+02	1.64435286e+12
2.98000000e+02	1.67908023e+12
2.99000000e+02	1.71421562e+12
3.00000000e+02	1.74975435e+12
3.01000000e+02	1.78569151e+12
3.02000000e+02	1.82202189e+12
3.03000000e+02	1.85874003e+12
3.04000000e+02	1.89584018e+12
3.05000000e+02	1.93331635e+12
3.06000000e+02	1.97116229e+12
3.07000000e+02	2.00937149e+12
3.08000000e+02	2.04793717e+12
3.09000000e+02	2.08685233e+12
3.10000000e+02	2.12610969e+12
3.11000000e+02	2.16570176e+12
3.12000000e+02	2.20562079e+12
3.13000000e+02	2.24585880e+12
3.14000000e+02	2.28640761e+12
3.15000000e+02	2.32725878e+12
3.16000000e+02	2.36840368e+12
3.17000000e+02	2.40983345e+12
3.18000000e+02	2.45153904e+12
3.19000000e+02	2.49351120e+12
3.20000000e+02	2.53574049e+12
3.21000000e+02	2.57821727e+12
3.22000000e+02	2.62093174e+12
3.23000000e+02	2.66387392e+12
3.24000000e+02	2.70703368e+12
3.25000000e+02	2.75040070e+12
3.26000000e+02	2.79396456e+12
3.27000000e+02	2.83771466e+12
3.28000000e+02	2.88164029e+12
3.29000000e+02	2.92573060e+12
3.30000000e+02	2.96997463e+12
3.31000000e+02	3.01436131e+12
3.32000000e+02	3.05887948e+12
3.33000000e+02	3.10351787e+12
3.34000000e+02	3.14826514e+12
3.35000000e+02	3.19310988e+12
3.36000000e+02	3.23804059e+12
3.37000000e+02	3.28304572e+12
3.38000000e+02	3.32811369e+12
3.39000000e+02	3.37323286e+12
3.40000000e+02	3.41839155e+12
3.41000000e+02	3.46357807e+12
3.42000000e+02	3.50878070e+12
3.43000000e+02	3.55398772e+12
3.44000000e+02	3.59918740e+12
3.45000000e+02	3.64436803e+12
3.46000000e+02	3.68951789e+12
3.47000000e+02	3.73462529e+12
3.48000000e+02	3.77967859e+12
3.49000000e+02	3.82466615e+12
3.50000000e+02	3.86957640e+12
3.51000000e+02	3.91439780e+12
3.52000000e+02	3.95911886e+12
3.53000000e+02	4.00372819e+12
3.54000000e+02	4.04821441e+12
3.55000000e+02	4.09256624e+12
3.56000000e+02	4.13677250e+12
3.57000000e+02	4.18082204e+12
3.58000000e+02	4.22470383e+12
3.59000000e+02	4.26840694e+12
3.60000000e+02	4.31192049e+12
3.61000000e+02	4.35523374e+12
3.62000000e+02	4.39833602e+12
3.63000000e+02	4.44121679e+12
3.64000000e+02	4.48386559e+12
3.65000000e+02	4.52627208e+12
3.66000000e+02	4.56842601e+12
3.67000000e+02	4.61031726e+12
3.68000000e+02	4.65193581e+12
3.69000000e+02	4.69327173e+12
3.70000000e+02	4.73431522e+12
3.71000000e+02	4.77505657e+12
3.72000000e+02	4.81548619e+12
3.73000000e+02	4.85559456e+12
3.74000000e+02	4.89537229e+12
3.75000000e+02	4.93481007e+12
3.76000000e+02	4.97389869e+12
3.77000000e+02	5.01262899e+12
3.78000000e+02	5.05099194e+12
3.79000000e+02	5.08897856e+12
3.80000000e+02	5.12657993e+12
3.81000000e+02	5.16378721e+12
3.82000000e+02	5.20059160e+12
3.83000000e+02	5.23698435e+12
3.84000000e+02	5.27295675e+12
3.85000000e+02	5.30850013e+12
3.86000000e+02	5.34360582e+12
3.87000000e+02	5.37826517e+12
3.88000000e+02	5.41246953e+12
3.89000000e+02	5.44621023e+12
3.90000000e+02	5.47947859e+12
3.91000000e+02	5.51226589e+12
3.92000000e+02	5.54456338e+12
3.93000000e+02	5.57636221e+12
3.94000000e+02	5.60765352e+12
3.95000000e+02	5.63842831e+12
3.96000000e+02	5.66867754e+12
3.97000000e+02	5.69839201e+12
3.98000000e+02	5.72756244e+12
3.99000000e+02	5.75617940e+12
4.00000000e+02	5.78423332e+12
4.01000000e+02	5.81171446e+12
4.02000000e+02	5.83861293e+12
4.03000000e+02	5.86491863e+12
4.04000000e+02	5.89062131e+12
4.05000000e+02	5.91571047e+12
4.06000000e+02	5.94017542e+12
4.07000000e+02	5.96400523e+12
4.08000000e+02	5.98718875e+12
4.09000000e+02	6.00971458e+12
4.10000000e+02	6.03157106e+12
4.11000000e+02	6.05274630e+12
4.12000000e+02	6.07322810e+12
4.13000000e+02	6.09300403e+12
4.14000000e+02	6.11206138e+12
4.15000000e+02	6.13038716e+12
4.16000000e+02	6.14796809e+12
4.17000000e+02	6.16479065e+12
4.18000000e+02	6.18084102e+12
4.19000000e+02	6.19610512e+12
4.20000000e+02	6.21056860e+12
4.21000000e+02	6.22421687e+12
4.22000000e+02	6.23703506e+12
4.23000000e+02	6.24900808e+12
4.24000000e+02	6.26012063e+12
4.25000000e+02	6.27035717e+12
4.26000000e+02	6.27970199e+12
4.27000000e+02	6.28813916e+12
4.28000000e+02	6.29565265e+12
4.29000000e+02	6.30222625e+12
4.30000000e+02	6.30784365e+12
4.31000000e+02	6.31248846e+12
4.32000000e+02	6.31614423e+12
4.33000000e+02	6.31879448e+12
4.34000000e+02	6.32042274e+12
4.35000000e+02	6.32101256e+12
4.36000000e+02	6.32054757e+12
4.37000000e+02	6.31901153e+12
4.38000000e+02	6.31638833e+12
4.39000000e+02	6.31266206e+12
4.40000000e+02	6.30781703e+12
4.41000000e+02	6.30183783e+12
4.42000000e+02	6.29470940e+12
4.43000000e+02	6.28641701e+12
4.44000000e+02	6.27694637e+12
4.45000000e+02	6.26628365e+12
4.46000000e+02	6.25441554e+12
4.47000000e+02	6.24132931e+12
4.48000000e+02	6.22701282e+12
4.49000000e+02	6.21145463e+12
4.50000000e+02	6.19464401e+12
4.51000000e+02	6.17657103e+12
4.52000000e+02	6.15722657e+12
4.53000000e+02	6.13660241e+12
4.54000000e+02	6.11469127e+12
4.55000000e+02	6.09148686e+12
4.56000000e+02	6.06698394e+12
4.57000000e+02	6.04117836e+12
4.58000000e+02	6.01406716e+12
4.59000000e+02	5.98564852e+12
4.60000000e+02	5.95592193e+12
4.61000000e+02	5.92488813e+12
4.62000000e+02	5.89254925e+12
4.63000000e+02	5.85890878e+12
4.64000000e+02	5.82397165e+12
4.65000000e+02	5.78774427e+12
4.66000000e+02	5.75023454e+12
4.67000000e+02	5.71145192e+12
4.68000000e+02	5.67140743e+12
4.69000000e+02	5.63011371e+12
4.70000000e+02	5.58758501e+12
4.71000000e+02	5.54383722e+12
4.72000000e+02	5.49888789e+12
4.73000000e+02	5.45275624e+12
4.74000000e+02	5.40546314e+12
4.75000000e+02	5.35703115e+12
4.76000000e+02	5.30748448e+12
4.77000000e+02	5.25684897e+12
4.78000000e+02	5.20515209e+12
4.79000000e+02	5.15242289e+12
4.80000000e+02	5.09869197e+12
4.81000000e+02	5.04399144e+12
4.82000000e+02	4.98835485e+12
4.83000000e+02	4.93181714e+12
4.84000000e+02	4.87441456e+12
4.85000000e+02	4.81618460e+12
4.86000000e+02	4.75716589e+12
4.87000000e+02	4.69739809e+12
4.88000000e+02	4.63692182e+12
4.89000000e+02	4.57577850e+12
4.90000000e+02	4.51401027e+12
4.91000000e+02	4.45165983e+12
4.92000000e+02	4.38877033e+12
4.93000000e+02	4.32538521e+12
4.94000000e+02	4.26154805e+12
4.95000000e+02	4.19730248e+12
4.96000000e+02	4.13269194e+12
4.97000000e+02	4.06775962e+12
4.98000000e+02	4.00254827e+12
4.99000000e+02	3.93710004e+12
5.00000000e+02	3.87145639e+12
5.01000000e+02	3.80565793e+12
5.02000000e+02	3.73974428e+12
5.03000000e+02	3.67375398e+12
5.04000000e+02	3.60772438e+12
5.05000000e+02	3.54169154e+12
5.06000000e+02	3.47569015e+12
5.07000000e+02	3.40975347e+12
5.08000000e+02	3.34391326e+12
5.09000000e+02	3.27819978e+12
5.10000000e+02	3.21264173e+12
5.11000000e+02	3.14726628e+12
5.12000000e+02	3.08209906e+12
5.13000000e+02	3.01716419e+12
5.14000000e+02	2.95248434e+12
5.15000000e+02	2.88808076e+12
5.16000000e+02	2.82397339e+12
5.17000000e+02	2.76018092e+12
5.18000000e+02	2.69672088e+12
5.19000000e+02	2.63360978e+12
5.20000000e+02	2.57086320e+12
5.21000000e+02	2.50849594e+12
5.22000000e+02	2.44652212e+12
5.23000000e+02	2.38495535e+12
5.24000000e+02	2.32380888e+12
5.25000000e+02	2.26309569e+12
5.26000000e+02	2.20282868e+12
5.27000000e+02	2.14302082e+12
5.28000000e+02	2.08368526e+12
5.29000000e+02	2.02483547e+12
5.30000000e+02	1.96648538e+12
5.31000000e+02	1.90864952e+12
5.32000000e+02	1.85134309e+12
5.33000000e+02	1.79458209e+12
5.34000000e+02	1.73838343e+12
5.35000000e+02	1.68276496e+12
5.36000000e+02	1.62774557e+12
5.37000000e+02	1.57334520e+12
5.38000000e+02	1.51958492e+12
5.39000000e+02	1.46648689e+12
5.40000000e+02	1.41407438e+12
5.41000000e+02	1.36237173e+12
5.42000000e+02	1.31140429e+12
5.43000000e+02	1.26119835e+12
5.44000000e+02	1.21178106e+12
5.45000000e+02	1.16318030e+12
5.46000000e+02	1.11542452e+12
5.47000000e+02	1.06854261e+12
5.48000000e+02	1.02256372e+12
5.49000000e+02	9.77517014e+11
5.50000000e+02	9.33431514e+11
5.51000000e+02	8.90335820e+11
5.52000000e+02	8.48257888e+11
5.53000000e+02	8.07224767e+11
5.54000000e+02	7.67262342e+11
5.55000000e+02	7.28395066e+11
5.56000000e+02	6.90645702e+11
5.57000000e+02	6.54035059e+11
5.58000000e+02	6.18581752e+11
5.59000000e+02	5.84301960e+11
5.60000000e+02	5.51209212e+11
5.61000000e+02	5.19314193e+11
5.62000000e+02	4.88624573e+11
5.63000000e+02	4.59144864e+11
5.64000000e+02	4.30876313e+11
5.65000000e+02	4.03816828e+11
5.66000000e+02	3.77960935e+11
5.67000000e+02	3.53299778e+11
5.68000000e+02	3.29821152e+11
5.69000000e+02	3.07509577e+11
5.70000000e+02	2.86346401e+11
5.71000000e+02	2.66309946e+11
5.72000000e+02	2.47375676e+11
5.73000000e+02	2.29516400e+11
5.74000000e+02	2.12702497e+11
5.75000000e+02	1.96902161e+11
5.76000000e+02	1.82081665e+11
5.77000000e+02	1.68205633e+11
5.78000000e+02	1.55237325e+11
5.79000000e+02	1.43138917e+11
5.80000000e+02	1.31871790e+11
5.81000000e+02	1.21396801e+11
5.82000000e+02	1.11674559e+11
5.83000000e+02	1.02665675e+11
5.84000000e+02	9.43310063e+10
5.85000000e+02	8.66318773e+10
5.86000000e+02	7.95302843e+10
5.87000000e+02	7.29890774e+10
5.88000000e+02	6.69721207e+10
5.89000000e+02	6.14444310e+10
5.90000000e+02	5.63722938e+10
5.91000000e+02	5.17233574e+10
5.92000000e+02	4.74667063e+10
5.93000000e+02	4.35729145e+10
5.94000000e+02	4.00140801e+10
5.95000000e+02	3.67638431e+10
5.96000000e+02	3.37973866e+10
5.97000000e+02	3.10914250e+10
5.98000000e+02	2.86241798e+10
5.99000000e+02	2.63753449e+10
6.00000000e+02	2.43260412e+10
6.01000000e+02	2.24587674e+10
6.02000000e+02	2.07573424e+10
6.03000000e+02	1.92068434e+10
6.04000000e+02	1.77935417e+10
6.05000000e+02	1.65048367e+10
6.06000000e+02	1.53291879e+10
6.07000000e+02	1.42560478e+10
6.08000000e+02	1.32757950e+10
6.09000000e+02	1.23796689e+10
6.10000000e+02	1.15597061e+10
6.11000000e+02	1.08086792e+10
6.12000000e+02	1.01200386e+10
6.13000000e+02	9.48785634e+09
6.14000000e+02	8.90677374e+09
6.15000000e+02	8.37195202e+09
6.16000000e+02	7.87902592e+09
6.17000000e+02	7.42406064e+09
6.18000000e+02	7.00351187e+09
6.19000000e+02	6.61418886e+09
6.20000000e+02	6.25322047e+09
6.21000000e+02	5.91802393e+09
6.22000000e+02	5.60627634e+09
6.23000000e+02	5.31588865e+09
6.24000000e+02	5.04498203e+09
6.25000000e+02	4.79186632e+09
6.26000000e+02	4.55502070e+09
6.27000000e+02	4.33307603e+09
6.28000000e+02	4.12479910e+09
6.29000000e+02	3.92907835e+09
6.30000000e+02	3.74491109e+09
6.31000000e+02	3.57139201e+09
6.32000000e+02	3.40770291e+09
6.33000000e+02	3.25310354e+09
6.34000000e+02	3.10692333e+09
6.35000000e+02	2.96855410e+09
6.36000000e+02	2.83744350e+09
6.37000000e+02	2.71308921e+09
6.38000000e+02	2.59503372e+09
6.39000000e+02	2.48285969e+09
6.40000000e+02	2.37618586e+09
6.41000000e+02	2.27466334e+09
6.42000000e+02	2.17797234e+09
6.43000000e+02	2.08581923e+09
6.44000000e+02	1.99793392e+09
6.45000000e+02	1.91406748e+09
6.46000000e+02	1.83399007e+09
6.47000000e+02	1.75748907e+09
6.48000000e+02	1.68436733e+09
6.49000000e+02	1.61444170e+09
6.50000000e+02	1.54754169e+09
6.51000000e+02	1.48350824e+09
6.52000000e+02	1.42219264e+09
6.53000000e+02	1.36345560e+09
6.54000000e+02	1.30716638e+09
6.55000000e+02	1.25320204e+09
6.56000000e+02	1.20144676e+09
6.57000000e+02	1.15179125e+09
6.58000000e+02	1.10413216e+09
6.59000000e+02	1.05837167e+09
