# Profil de FluxX au temps 4.000000000000029e-12 
# simu : /Volumes/MERCURE/JOBS/Zeq2_tanh_50mic_1p5e20_B0_20ps/GNU/FluxX@y-c.set
# col 0 : abscisse (um)
# col 1 : FluxX (W/cm2)
0.00000000e+00	0.00000000e+00
1.00000000e+00	9.95617724e+05
2.00000000e+00	1.80211555e+06
3.00000000e+00	3.08103404e+06
4.00000000e+00	4.02848444e+06
5.00000000e+00	4.95954133e+06
6.00000000e+00	5.89141811e+06
7.00000000e+00	6.83050369e+06
8.00000000e+00	7.77968377e+06
9.00000000e+00	8.74074017e+06
1.00000000e+01	9.71525331e+06
1.10000000e+01	1.07048042e+07
1.20000000e+01	1.17109973e+07
1.30000000e+01	1.27354633e+07
1.40000000e+01	1.37798626e+07
1.50000000e+01	1.48458855e+07
1.60000000e+01	1.59352565e+07
1.70000000e+01	1.70497351e+07
1.80000000e+01	1.81911195e+07
1.90000000e+01	1.93612531e+07
2.00000000e+01	2.05620173e+07
2.10000000e+01	2.17953472e+07
2.20000000e+01	2.30632286e+07
2.30000000e+01	2.43677004e+07
2.40000000e+01	2.57108583e+07
2.50000000e+01	2.70948607e+07
2.60000000e+01	2.85219303e+07
2.70000000e+01	2.99943587e+07
2.80000000e+01	3.15145097e+07
2.90000000e+01	3.30848196e+07
3.00000000e+01	3.47078077e+07
3.10000000e+01	3.63860748e+07
3.20000000e+01	3.81223097e+07
3.30000000e+01	3.99192921e+07
3.40000000e+01	4.17798988e+07
3.50000000e+01	4.37071047e+07
3.60000000e+01	4.57039926e+07
3.70000000e+01	4.77737539e+07
3.80000000e+01	4.99196970e+07
3.90000000e+01	5.21452510e+07
4.00000000e+01	5.44539751e+07
4.10000000e+01	5.68495591e+07
4.20000000e+01	5.93358368e+07
4.30000000e+01	6.19167872e+07
4.40000000e+01	6.45965410e+07
4.50000000e+01	6.73793910e+07
4.60000000e+01	7.02697976e+07
4.70000000e+01	7.32723949e+07
4.80000000e+01	7.63919960e+07
4.90000000e+01	7.96336037e+07
5.00000000e+01	8.30024150e+07
5.10000000e+01	8.65038314e+07
5.20000000e+01	9.01434632e+07
5.30000000e+01	9.39271416e+07
5.40000000e+01	9.78609256e+07
5.50000000e+01	1.01951110e+08
5.60000000e+01	1.06204240e+08
5.70000000e+01	1.10627118e+08
5.80000000e+01	1.15226812e+08
5.90000000e+01	1.20010675e+08
6.00000000e+01	1.24986353e+08
6.10000000e+01	1.30161792e+08
6.20000000e+01	1.35545264e+08
6.30000000e+01	1.41145367e+08
6.40000000e+01	1.46971054e+08
6.50000000e+01	1.53031635e+08
6.60000000e+01	1.59336799e+08
6.70000000e+01	1.65896631e+08
6.80000000e+01	1.72721628e+08
6.90000000e+01	1.79822715e+08
7.00000000e+01	1.87211267e+08
7.10000000e+01	1.94899122e+08
7.20000000e+01	2.02898606e+08
7.30000000e+01	2.11222548e+08
7.40000000e+01	2.19884300e+08
7.50000000e+01	2.28897757e+08
7.60000000e+01	2.38277380e+08
7.70000000e+01	2.48038213e+08
7.80000000e+01	2.58195906e+08
7.90000000e+01	2.68766735e+08
8.00000000e+01	2.79767628e+08
8.10000000e+01	2.91216192e+08
8.20000000e+01	3.03130732e+08
8.30000000e+01	3.15530285e+08
8.40000000e+01	3.28434654e+08
8.50000000e+01	3.41864431e+08
8.60000000e+01	3.55841038e+08
8.70000000e+01	3.70386762e+08
8.80000000e+01	3.85524791e+08
8.90000000e+01	4.01279255e+08
9.00000000e+01	4.17675266e+08
9.10000000e+01	4.34738962e+08
9.20000000e+01	4.52497548e+08
9.30000000e+01	4.70979343e+08
9.40000000e+01	4.90213821e+08
9.50000000e+01	5.10231665e+08
9.60000000e+01	5.31064809e+08
9.70000000e+01	5.52746491e+08
9.80000000e+01	5.75311306e+08
9.90000000e+01	5.98795259e+08
1.00000000e+02	6.23235821e+08
1.01000000e+02	6.48671990e+08
1.02000000e+02	6.75144344e+08
1.03000000e+02	7.02695116e+08
1.04000000e+02	7.31368256e+08
1.05000000e+02	7.61209491e+08
1.06000000e+02	7.92266413e+08
1.07000000e+02	8.24588541e+08
1.08000000e+02	8.58227405e+08
1.09000000e+02	8.93236624e+08
1.10000000e+02	9.29671996e+08
1.11000000e+02	9.67591576e+08
1.12000000e+02	1.00705578e+09
1.13000000e+02	1.04812746e+09
1.14000000e+02	1.09087204e+09
1.15000000e+02	1.13535757e+09
1.16000000e+02	1.18165486e+09
1.17000000e+02	1.22983761e+09
1.18000000e+02	1.27998247e+09
1.19000000e+02	1.33216923e+09
1.20000000e+02	1.38648088e+09
1.21000000e+02	1.44300377e+09
1.22000000e+02	1.50182776e+09
1.23000000e+02	1.56304633e+09
1.24000000e+02	1.62675673e+09
1.25000000e+02	1.69306016e+09
1.26000000e+02	1.76206188e+09
1.27000000e+02	1.83387142e+09
1.28000000e+02	1.90860273e+09
1.29000000e+02	1.98637433e+09
1.30000000e+02	2.06730955e+09
1.31000000e+02	2.15153666e+09
1.32000000e+02	2.23918911e+09
1.33000000e+02	2.33040573e+09
1.34000000e+02	2.42533093e+09
1.35000000e+02	2.52411490e+09
1.36000000e+02	2.62691391e+09
1.37000000e+02	2.73389047e+09
1.38000000e+02	2.84521362e+09
1.39000000e+02	2.96105919e+09
1.40000000e+02	3.08161005e+09
1.41000000e+02	3.20705639e+09
1.42000000e+02	3.33759601e+09
1.43000000e+02	3.47343464e+09
1.44000000e+02	3.61478619e+09
1.45000000e+02	3.76187316e+09
1.46000000e+02	3.91492688e+09
1.47000000e+02	4.07418792e+09
1.48000000e+02	4.23990643e+09
1.49000000e+02	4.41234250e+09
1.50000000e+02	4.59176655e+09
1.51000000e+02	4.77845976e+09
1.52000000e+02	4.97271444e+09
1.53000000e+02	5.17483446e+09
1.54000000e+02	5.38513574e+09
1.55000000e+02	5.60394667e+09
1.56000000e+02	5.83160859e+09
1.57000000e+02	6.06847632e+09
1.58000000e+02	6.31491860e+09
1.59000000e+02	6.57131870e+09
1.60000000e+02	6.83807490e+09
1.61000000e+02	7.11560112e+09
1.62000000e+02	7.40432744e+09
1.63000000e+02	7.70470076e+09
1.64000000e+02	8.01718539e+09
1.65000000e+02	8.34226372e+09
1.66000000e+02	8.68043687e+09
1.67000000e+02	9.03222542e+09
1.68000000e+02	9.39817007e+09
1.69000000e+02	9.77883241e+09
1.70000000e+02	1.01747957e+10
1.71000000e+02	1.05866656e+10
1.72000000e+02	1.10150710e+10
1.73000000e+02	1.14606650e+10
1.74000000e+02	1.19241254e+10
1.75000000e+02	1.24061560e+10
1.76000000e+02	1.29074873e+10
1.77000000e+02	1.34288776e+10
1.78000000e+02	1.39711136e+10
1.79000000e+02	1.45350119e+10
1.80000000e+02	1.51214197e+10
1.81000000e+02	1.57312158e+10
1.82000000e+02	1.63653121e+10
1.83000000e+02	1.70246542e+10
1.84000000e+02	1.77102229e+10
1.85000000e+02	1.84230352e+10
1.86000000e+02	1.91641456e+10
1.87000000e+02	1.99346473e+10
1.88000000e+02	2.07356735e+10
1.89000000e+02	2.15683986e+10
1.90000000e+02	2.24340397e+10
1.91000000e+02	2.33338577e+10
1.92000000e+02	2.42691590e+10
1.93000000e+02	2.52412967e+10
1.94000000e+02	2.62516721e+10
1.95000000e+02	2.73017363e+10
1.96000000e+02	2.83929915e+10
1.97000000e+02	2.95269927e+10
1.98000000e+02	3.07053492e+10
1.99000000e+02	3.19297262e+10
2.00000000e+02	3.32018465e+10
2.01000000e+02	3.45234922e+10
2.02000000e+02	3.58965059e+10
2.03000000e+02	3.73227931e+10
2.04000000e+02	3.88043234e+10
2.05000000e+02	4.03431326e+10
2.06000000e+02	4.19413240e+10
2.07000000e+02	4.36010707e+10
2.08000000e+02	4.53246170e+10
2.09000000e+02	4.71142805e+10
2.10000000e+02	4.89724538e+10
2.11000000e+02	5.09016060e+10
2.12000000e+02	5.29042853e+10
2.13000000e+02	5.49831200e+10
2.14000000e+02	5.71408209e+10
2.15000000e+02	5.93801830e+10
2.16000000e+02	6.17040873e+10
2.17000000e+02	6.41155025e+10
2.18000000e+02	6.66174870e+10
2.19000000e+02	6.92131907e+10
2.20000000e+02	7.19058567e+10
2.21000000e+02	7.46988230e+10
2.22000000e+02	7.75955242e+10
2.23000000e+02	8.05994934e+10
2.24000000e+02	8.37143637e+10
2.25000000e+02	8.69438697e+10
2.26000000e+02	9.02918492e+10
2.27000000e+02	9.37622447e+10
2.28000000e+02	9.73591046e+10
2.29000000e+02	1.01086585e+11
2.30000000e+02	1.04948950e+11
2.31000000e+02	1.08950575e+11
2.32000000e+02	1.13095944e+11
2.33000000e+02	1.17389657e+11
2.34000000e+02	1.21836422e+11
2.35000000e+02	1.26441064e+11
2.36000000e+02	1.31208521e+11
2.37000000e+02	1.36143848e+11
2.38000000e+02	1.41252213e+11
2.39000000e+02	1.46538900e+11
2.40000000e+02	1.52009309e+11
2.41000000e+02	1.57668957e+11
2.42000000e+02	1.63523474e+11
2.43000000e+02	1.69578607e+11
2.44000000e+02	1.75840217e+11
2.45000000e+02	1.82314279e+11
2.46000000e+02	1.89006879e+11
2.47000000e+02	1.95924217e+11
2.48000000e+02	2.03072603e+11
2.49000000e+02	2.10458453e+11
2.50000000e+02	2.18088293e+11
2.51000000e+02	2.25968752e+11
2.52000000e+02	2.34106562e+11
2.53000000e+02	2.42508553e+11
2.54000000e+02	2.51181654e+11
2.55000000e+02	2.60132886e+11
2.56000000e+02	2.69369362e+11
2.57000000e+02	2.78898281e+11
2.58000000e+02	2.88726925e+11
2.59000000e+02	2.98862652e+11
2.60000000e+02	3.09312898e+11
2.61000000e+02	3.20085165e+11
2.62000000e+02	3.31187020e+11
2.63000000e+02	3.42626088e+11
2.64000000e+02	3.54410048e+11
2.65000000e+02	3.66546623e+11
2.66000000e+02	3.79043579e+11
2.67000000e+02	3.91908714e+11
2.68000000e+02	4.05149852e+11
2.69000000e+02	4.18774839e+11
2.70000000e+02	4.32791529e+11
2.71000000e+02	4.47207782e+11
2.72000000e+02	4.62031453e+11
2.73000000e+02	4.77270384e+11
2.74000000e+02	4.92932395e+11
2.75000000e+02	5.09025276e+11
2.76000000e+02	5.25556775e+11
2.77000000e+02	5.42534591e+11
2.78000000e+02	5.59966365e+11
2.79000000e+02	5.77859665e+11
2.80000000e+02	5.96221982e+11
2.81000000e+02	6.15060713e+11
2.82000000e+02	6.34383157e+11
2.83000000e+02	6.54196498e+11
2.84000000e+02	6.74507796e+11
2.85000000e+02	6.95323979e+11
2.86000000e+02	7.16651826e+11
2.87000000e+02	7.38497957e+11
2.88000000e+02	7.60868825e+11
2.89000000e+02	7.83770700e+11
2.90000000e+02	8.07209658e+11
2.91000000e+02	8.31191571e+11
2.92000000e+02	8.55722091e+11
2.93000000e+02	8.80806643e+11
2.94000000e+02	9.06450409e+11
2.95000000e+02	9.32658320e+11
2.96000000e+02	9.59435038e+11
2.97000000e+02	9.86784950e+11
2.98000000e+02	1.01471216e+12
2.99000000e+02	1.04322045e+12
3.00000000e+02	1.07231332e+12
3.01000000e+02	1.10199393e+12
3.02000000e+02	1.13226511e+12
3.03000000e+02	1.16312933e+12
3.04000000e+02	1.19458874e+12
3.05000000e+02	1.22664508e+12
3.06000000e+02	1.25929975e+12
3.07000000e+02	1.29255374e+12
3.08000000e+02	1.32640766e+12
3.09000000e+02	1.36086172e+12
3.10000000e+02	1.39591569e+12
3.11000000e+02	1.43156894e+12
3.12000000e+02	1.46782043e+12
3.13000000e+02	1.50466863e+12
3.14000000e+02	1.54211163e+12
3.15000000e+02	1.58014702e+12
3.16000000e+02	1.61877197e+12
3.17000000e+02	1.65798316e+12
3.18000000e+02	1.69777683e+12
3.19000000e+02	1.73814874e+12
3.20000000e+02	1.77909417e+12
3.21000000e+02	1.82060795e+12
3.22000000e+02	1.86268439e+12
3.23000000e+02	1.90531736e+12
3.24000000e+02	1.94850022e+12
3.25000000e+02	1.99222586e+12
3.26000000e+02	2.03648669e+12
3.27000000e+02	2.08127463e+12
3.28000000e+02	2.12658113e+12
3.29000000e+02	2.17239715e+12
3.30000000e+02	2.21871317e+12
3.31000000e+02	2.26551921e+12
3.32000000e+02	2.31280482e+12
3.33000000e+02	2.36055908e+12
3.34000000e+02	2.40877060e+12
3.35000000e+02	2.45742755e+12
3.36000000e+02	2.50651765e+12
3.37000000e+02	2.55602817e+12
3.38000000e+02	2.60594595e+12
3.39000000e+02	2.65625740e+12
3.40000000e+02	2.70694852e+12
3.41000000e+02	2.75800489e+12
3.42000000e+02	2.80941170e+12
3.43000000e+02	2.86115374e+12
3.44000000e+02	2.91321543e+12
3.45000000e+02	2.96558081e+12
3.46000000e+02	3.01823357e+12
3.47000000e+02	3.07115707e+12
3.48000000e+02	3.12433429e+12
3.49000000e+02	3.17774794e+12
3.50000000e+02	3.23138040e+12
3.51000000e+02	3.28521374e+12
3.52000000e+02	3.33922976e+12
3.53000000e+02	3.39341000e+12
3.54000000e+02	3.44773574e+12
3.55000000e+02	3.50218801e+12
3.56000000e+02	3.55674761e+12
3.57000000e+02	3.61139515e+12
3.58000000e+02	3.66611102e+12
3.59000000e+02	3.72087543e+12
3.60000000e+02	3.77566843e+12
3.61000000e+02	3.83046989e+12
3.62000000e+02	3.88525957e+12
3.63000000e+02	3.94001709e+12
3.64000000e+02	3.99472194e+12
3.65000000e+02	4.04935354e+12
3.66000000e+02	4.10389120e+12
3.67000000e+02	4.15831418e+12
3.68000000e+02	4.21260166e+12
3.69000000e+02	4.26673280e+12
3.70000000e+02	4.32068670e+12
3.71000000e+02	4.37444246e+12
3.72000000e+02	4.42797916e+12
3.73000000e+02	4.48127590e+12
3.74000000e+02	4.53431179e+12
3.75000000e+02	4.58706595e+12
3.76000000e+02	4.63951756e+12
3.77000000e+02	4.69164584e+12
3.78000000e+02	4.74343004e+12
3.79000000e+02	4.79484952e+12
3.80000000e+02	4.84588368e+12
3.81000000e+02	4.89651201e+12
3.82000000e+02	4.94671409e+12
3.83000000e+02	4.99646959e+12
3.84000000e+02	5.04575829e+12
3.85000000e+02	5.09456006e+12
3.86000000e+02	5.14285488e+12
3.87000000e+02	5.19062285e+12
3.88000000e+02	5.23784419e+12
3.89000000e+02	5.28449922e+12
3.90000000e+02	5.33056838e+12
3.91000000e+02	5.37603226e+12
3.92000000e+02	5.42087153e+12
3.93000000e+02	5.46506699e+12
3.94000000e+02	5.50859957e+12
3.95000000e+02	5.55145030e+12
3.96000000e+02	5.59360032e+12
3.97000000e+02	5.63503089e+12
3.98000000e+02	5.67572336e+12
3.99000000e+02	5.71565918e+12
4.00000000e+02	5.75481989e+12
4.01000000e+02	5.79318713e+12
4.02000000e+02	5.83074260e+12
4.03000000e+02	5.86746809e+12
4.04000000e+02	5.90334543e+12
4.05000000e+02	5.93835653e+12
4.06000000e+02	5.97248333e+12
4.07000000e+02	6.00570782e+12
4.08000000e+02	6.03801201e+12
4.09000000e+02	6.06937795e+12
4.10000000e+02	6.09978769e+12
4.11000000e+02	6.12922327e+12
4.12000000e+02	6.15766676e+12
4.13000000e+02	6.18510019e+12
4.14000000e+02	6.21150560e+12
4.15000000e+02	6.23686496e+12
4.16000000e+02	6.26116024e+12
4.17000000e+02	6.28437338e+12
4.18000000e+02	6.30648626e+12
4.19000000e+02	6.32748071e+12
4.20000000e+02	6.34733854e+12
4.21000000e+02	6.36604147e+12
4.22000000e+02	6.38357123e+12
4.23000000e+02	6.39990946e+12
4.24000000e+02	6.41503777e+12
4.25000000e+02	6.42893776e+12
4.26000000e+02	6.44159097e+12
4.27000000e+02	6.45297896e+12
4.28000000e+02	6.46308326e+12
4.29000000e+02	6.47188543e+12
4.30000000e+02	6.47936706e+12
4.31000000e+02	6.48550977e+12
4.32000000e+02	6.49029529e+12
4.33000000e+02	6.49370542e+12
4.34000000e+02	6.49572210e+12
4.35000000e+02	6.49632742e+12
4.36000000e+02	6.49550366e+12
4.37000000e+02	6.49323336e+12
4.38000000e+02	6.48949928e+12
4.39000000e+02	6.48428452e+12
4.40000000e+02	6.47757253e+12
4.41000000e+02	6.46934717e+12
4.42000000e+02	6.45959273e+12
4.43000000e+02	6.44829404e+12
4.44000000e+02	6.43543648e+12
4.45000000e+02	6.42100603e+12
4.46000000e+02	6.40498937e+12
4.47000000e+02	6.38737393e+12
4.48000000e+02	6.36814792e+12
4.49000000e+02	6.34730045e+12
4.50000000e+02	6.32482155e+12
4.51000000e+02	6.30070228e+12
4.52000000e+02	6.27493474e+12
4.53000000e+02	6.24751221e+12
4.54000000e+02	6.21842918e+12
4.55000000e+02	6.18768142e+12
4.56000000e+02	6.15526607e+12
4.57000000e+02	6.12118169e+12
4.58000000e+02	6.08542836e+12
4.59000000e+02	6.04800770e+12
4.60000000e+02	6.00892298e+12
4.61000000e+02	5.96817917e+12
4.62000000e+02	5.92578300e+12
4.63000000e+02	5.88174301e+12
4.64000000e+02	5.83606964e+12
4.65000000e+02	5.78877524e+12
4.66000000e+02	5.73987414e+12
4.67000000e+02	5.68938270e+12
4.68000000e+02	5.63731933e+12
4.69000000e+02	5.58370455e+12
4.70000000e+02	5.52856097e+12
4.71000000e+02	5.47191337e+12
4.72000000e+02	5.41378864e+12
4.73000000e+02	5.35421584e+12
4.74000000e+02	5.29322620e+12
4.75000000e+02	5.23085304e+12
4.76000000e+02	5.16713182e+12
4.77000000e+02	5.10210007e+12
4.78000000e+02	5.03579736e+12
4.79000000e+02	4.96826523e+12
4.80000000e+02	4.89954715e+12
4.81000000e+02	4.82968845e+12
4.82000000e+02	4.75873619e+12
4.83000000e+02	4.68673913e+12
4.84000000e+02	4.61374760e+12
4.85000000e+02	4.53981338e+12
4.86000000e+02	4.46498960e+12
4.87000000e+02	4.38933060e+12
4.88000000e+02	4.31289182e+12
4.89000000e+02	4.23572963e+12
4.90000000e+02	4.15790122e+12
4.91000000e+02	4.07946447e+12
4.92000000e+02	4.00047777e+12
4.93000000e+02	3.92099991e+12
4.94000000e+02	3.84108992e+12
4.95000000e+02	3.76080699e+12
4.96000000e+02	3.68021027e+12
4.97000000e+02	3.59935882e+12
4.98000000e+02	3.51831148e+12
4.99000000e+02	3.43712674e+12
5.00000000e+02	3.35586273e+12
5.01000000e+02	3.27457707e+12
5.02000000e+02	3.19332689e+12
5.03000000e+02	3.11216871e+12
5.04000000e+02	3.03115848e+12
5.05000000e+02	2.95035154e+12
5.06000000e+02	2.86980259e+12
5.07000000e+02	2.78956578e+12
5.08000000e+02	2.70969464e+12
5.09000000e+02	2.63024220e+12
5.10000000e+02	2.55126099e+12
5.11000000e+02	2.47280310e+12
5.12000000e+02	2.39492023e+12
5.13000000e+02	2.31766378e+12
5.14000000e+02	2.24108486e+12
5.15000000e+02	2.16523438e+12
5.16000000e+02	2.09016308e+12
5.17000000e+02	2.01592160e+12
5.18000000e+02	1.94256046e+12
5.19000000e+02	1.87013012e+12
5.20000000e+02	1.79868094e+12
5.21000000e+02	1.72826318e+12
5.22000000e+02	1.65892695e+12
5.23000000e+02	1.59072211e+12
5.24000000e+02	1.52369823e+12
5.25000000e+02	1.45790442e+12
5.26000000e+02	1.39338919e+12
5.27000000e+02	1.33020026e+12
5.28000000e+02	1.26838440e+12
5.29000000e+02	1.20798712e+12
5.30000000e+02	1.14905247e+12
5.31000000e+02	1.09162271e+12
5.32000000e+02	1.03573806e+12
5.33000000e+02	9.81436327e+11
5.34000000e+02	9.28752607e+11
5.35000000e+02	8.77718943e+11
5.36000000e+02	8.28363988e+11
5.37000000e+02	7.80712673e+11
5.38000000e+02	7.34785892e+11
5.39000000e+02	6.90600211e+11
5.40000000e+02	6.48167592e+11
5.41000000e+02	6.07495164e+11
5.42000000e+02	5.68585025e+11
5.43000000e+02	5.31434097e+11
5.44000000e+02	4.96034029e+11
5.45000000e+02	4.62371157e+11
5.46000000e+02	4.30426524e+11
5.47000000e+02	4.00175955e+11
5.48000000e+02	3.71590207e+11
5.49000000e+02	3.44635162e+11
5.50000000e+02	3.19272090e+11
5.51000000e+02	2.95457965e+11
5.52000000e+02	2.73145821e+11
5.53000000e+02	2.52285165e+11
5.54000000e+02	2.32822411e+11
5.55000000e+02	2.14701353e+11
5.56000000e+02	1.97863647e+11
5.57000000e+02	1.82249314e+11
5.58000000e+02	1.67797232e+11
5.59000000e+02	1.54445631e+11
5.60000000e+02	1.42132570e+11
5.61000000e+02	1.30796383e+11
5.62000000e+02	1.20376112e+11
5.63000000e+02	1.10811891e+11
5.64000000e+02	1.02045298e+11
5.65000000e+02	9.40196669e+10
5.66000000e+02	8.66803502e+10
5.67000000e+02	7.99749419e+10
5.68000000e+02	7.38534534e+10
5.69000000e+02	6.82684471e+10
5.70000000e+02	6.31751286e+10
5.71000000e+02	5.85313998e+10
5.72000000e+02	5.42978768e+10
5.73000000e+02	5.04378758e+10
5.74000000e+02	4.69173702e+10
5.75000000e+02	4.37049245e+10
5.76000000e+02	4.07716068e+10
5.77000000e+02	3.80908855e+10
5.78000000e+02	3.56385131e+10
5.79000000e+02	3.33924003e+10
5.80000000e+02	3.13324844e+10
5.81000000e+02	2.94405940e+10
5.82000000e+02	2.77003126e+10
5.83000000e+02	2.60968442e+10
5.84000000e+02	2.46168809e+10
5.85000000e+02	2.32484752e+10
5.86000000e+02	2.19809187e+10
5.87000000e+02	2.08046258e+10
5.88000000e+02	1.97110254e+10
5.89000000e+02	1.86924597e+10
5.90000000e+02	1.77420901e+10
5.91000000e+02	1.68538114e+10
5.92000000e+02	1.60221725e+10
5.93000000e+02	1.52423050e+10
5.94000000e+02	1.45098581e+10
5.95000000e+02	1.38209400e+10
5.96000000e+02	1.31720662e+10
5.97000000e+02	1.25601115e+10
5.98000000e+02	1.19822696e+10
5.99000000e+02	1.14360149e+10
6.00000000e+02	1.09190709e+10
6.01000000e+02	1.04293805e+10
6.02000000e+02	9.96508086e+09
6.03000000e+02	9.52448111e+09
6.04000000e+02	9.10604270e+09
6.05000000e+02	8.70836211e+09
6.06000000e+02	8.33015591e+09
6.07000000e+02	7.97024746e+09
6.08000000e+02	7.62755543e+09
6.09000000e+02	7.30108368e+09
6.10000000e+02	6.98991240e+09
6.11000000e+02	6.69319034e+09
6.12000000e+02	6.41012799e+09
6.13000000e+02	6.13999163e+09
6.14000000e+02	5.88209800e+09
6.15000000e+02	5.63580971e+09
6.16000000e+02	5.40053108e+09
6.17000000e+02	5.17570454e+09
6.18000000e+02	4.96080736e+09
6.19000000e+02	4.75534878e+09
6.20000000e+02	4.55886749e+09
6.21000000e+02	4.37092923e+09
6.22000000e+02	4.19112483e+09
6.23000000e+02	4.01906826e+09
6.24000000e+02	3.85439503e+09
6.25000000e+02	3.69676060e+09
6.26000000e+02	3.54583904e+09
6.27000000e+02	3.40132177e+09
6.28000000e+02	3.26291639e+09
6.29000000e+02	3.13034564e+09
6.30000000e+02	3.00334643e+09
6.31000000e+02	2.88166896e+09
6.32000000e+02	2.76507587e+09
6.33000000e+02	2.65334150e+09
6.34000000e+02	2.54625117e+09
6.35000000e+02	2.44360051e+09
6.36000000e+02	2.34519486e+09
6.37000000e+02	2.25084867e+09
6.38000000e+02	2.16038496e+09
6.39000000e+02	2.07363483e+09
6.40000000e+02	1.99043695e+09
6.41000000e+02	1.91063715e+09
6.42000000e+02	1.83408800e+09
6.43000000e+02	1.76064840e+09
6.44000000e+02	1.69018328e+09
6.45000000e+02	1.62256329e+09
6.46000000e+02	1.55766448e+09
6.47000000e+02	1.49536813e+09
6.48000000e+02	1.43556052e+09
6.49000000e+02	1.37813278e+09
6.50000000e+02	1.32298073e+09
6.51000000e+02	1.27000478e+09
6.52000000e+02	1.21910982e+09
6.53000000e+02	1.17020507e+09
6.54000000e+02	1.12320400e+09
6.55000000e+02	1.07802413e+09
6.56000000e+02	1.03458686e+09
6.57000000e+02	9.92817228e+08
6.58000000e+02	9.52643680e+08
6.59000000e+02	9.13997756e+08
