# Profil de FluxX au temps 9.000000000000108e-12 
# simu : /Volumes/MERCURE/JOBS/Zeq2_tanh_50mic_1p5e20_B0_20ps/GNU/FluxX@y-c.set
# col 0 : abscisse (um)
# col 1 : FluxX (W/cm2)
0.00000000e+00	0.00000000e+00
1.00000000e+00	4.42320218e+08
2.00000000e+00	8.84942122e+08
3.00000000e+00	1.32901500e+09
4.00000000e+00	1.77422523e+09
5.00000000e+00	2.22137913e+09
6.00000000e+00	2.67098653e+09
7.00000000e+00	3.12354795e+09
8.00000000e+00	3.57956242e+09
9.00000000e+00	4.03953016e+09
1.00000000e+01	4.50395383e+09
1.10000000e+01	4.97333905e+09
1.20000000e+01	5.44819476e+09
1.30000000e+01	5.92903355e+09
1.40000000e+01	6.41637196e+09
1.50000000e+01	6.91073080e+09
1.60000000e+01	7.41263550e+09
1.70000000e+01	7.92261642e+09
1.80000000e+01	8.44120914e+09
1.90000000e+01	8.96895478e+09
2.00000000e+01	9.50640035e+09
2.10000000e+01	1.00540990e+10
2.20000000e+01	1.06126104e+10
2.30000000e+01	1.11825009e+10
2.40000000e+01	1.17643441e+10
2.50000000e+01	1.23587208e+10
2.60000000e+01	1.29662195e+10
2.70000000e+01	1.35874368e+10
2.80000000e+01	1.42229774e+10
2.90000000e+01	1.48734545e+10
3.00000000e+01	1.55394904e+10
3.10000000e+01	1.62217162e+10
3.20000000e+01	1.69207724e+10
3.30000000e+01	1.76373092e+10
3.40000000e+01	1.83719867e+10
3.50000000e+01	1.91254751e+10
3.60000000e+01	1.98984552e+10
3.70000000e+01	2.06916182e+10
3.80000000e+01	2.15056663e+10
3.90000000e+01	2.23413129e+10
4.00000000e+01	2.31992829e+10
4.10000000e+01	2.40803126e+10
4.20000000e+01	2.49851502e+10
4.30000000e+01	2.59145561e+10
4.40000000e+01	2.68693027e+10
4.50000000e+01	2.78501752e+10
4.60000000e+01	2.88579712e+10
4.70000000e+01	2.98935014e+10
4.80000000e+01	3.09575894e+10
4.90000000e+01	3.20510721e+10
5.00000000e+01	3.31747997e+10
5.10000000e+01	3.43296361e+10
5.20000000e+01	3.55164588e+10
5.30000000e+01	3.67361593e+10
5.40000000e+01	3.79896429e+10
5.50000000e+01	3.92778290e+10
5.60000000e+01	4.06016516e+10
5.70000000e+01	4.19620585e+10
5.80000000e+01	4.33600123e+10
5.90000000e+01	4.47964900e+10
6.00000000e+01	4.62724832e+10
6.10000000e+01	4.77889982e+10
6.20000000e+01	4.93470558e+10
6.30000000e+01	5.09476917e+10
6.40000000e+01	5.25919563e+10
6.50000000e+01	5.42809149e+10
6.60000000e+01	5.60156475e+10
6.70000000e+01	5.77972487e+10
6.80000000e+01	5.96268281e+10
6.90000000e+01	6.15055099e+10
7.00000000e+01	6.34344327e+10
7.10000000e+01	6.54147502e+10
7.20000000e+01	6.74476300e+10
7.30000000e+01	6.95342546e+10
7.40000000e+01	7.16758204e+10
7.50000000e+01	7.38735382e+10
7.60000000e+01	7.61286328e+10
7.70000000e+01	7.84423426e+10
7.80000000e+01	8.08159199e+10
7.90000000e+01	8.32506306e+10
8.00000000e+01	8.57477534e+10
8.10000000e+01	8.83085807e+10
8.20000000e+01	9.09344170e+10
8.30000000e+01	9.36265800e+10
8.40000000e+01	9.63863992e+10
8.50000000e+01	9.92152163e+10
8.60000000e+01	1.02114385e+11
8.70000000e+01	1.05085269e+11
8.80000000e+01	1.08129244e+11
8.90000000e+01	1.11247697e+11
9.00000000e+01	1.14442025e+11
9.10000000e+01	1.17713633e+11
9.20000000e+01	1.21063937e+11
9.30000000e+01	1.24494362e+11
9.40000000e+01	1.28006341e+11
9.50000000e+01	1.31601316e+11
9.60000000e+01	1.35280735e+11
9.70000000e+01	1.39046054e+11
9.80000000e+01	1.42898736e+11
9.90000000e+01	1.46840249e+11
1.00000000e+02	1.50872066e+11
1.01000000e+02	1.54995667e+11
1.02000000e+02	1.59212535e+11
1.03000000e+02	1.63524155e+11
1.04000000e+02	1.67932018e+11
1.05000000e+02	1.72437615e+11
1.06000000e+02	1.77042440e+11
1.07000000e+02	1.81747987e+11
1.08000000e+02	1.86555751e+11
1.09000000e+02	1.91467226e+11
1.10000000e+02	1.96483907e+11
1.11000000e+02	2.01607283e+11
1.12000000e+02	2.06838845e+11
1.13000000e+02	2.12180077e+11
1.14000000e+02	2.17632461e+11
1.15000000e+02	2.23197473e+11
1.16000000e+02	2.28876582e+11
1.17000000e+02	2.34671254e+11
1.18000000e+02	2.40582944e+11
1.19000000e+02	2.46613100e+11
1.20000000e+02	2.52763161e+11
1.21000000e+02	2.59034557e+11
1.22000000e+02	2.65428704e+11
1.23000000e+02	2.71947010e+11
1.24000000e+02	2.78590867e+11
1.25000000e+02	2.85361656e+11
1.26000000e+02	2.92260741e+11
1.27000000e+02	2.99289474e+11
1.28000000e+02	3.06449188e+11
1.29000000e+02	3.13741200e+11
1.30000000e+02	3.21166807e+11
1.31000000e+02	3.28727289e+11
1.32000000e+02	3.36423906e+11
1.33000000e+02	3.44257895e+11
1.34000000e+02	3.52230474e+11
1.35000000e+02	3.60342836e+11
1.36000000e+02	3.68596150e+11
1.37000000e+02	3.76991563e+11
1.38000000e+02	3.85530193e+11
1.39000000e+02	3.94213135e+11
1.40000000e+02	4.03041452e+11
1.41000000e+02	4.12016184e+11
1.42000000e+02	4.21138337e+11
1.43000000e+02	4.30408890e+11
1.44000000e+02	4.39828790e+11
1.45000000e+02	4.49398951e+11
1.46000000e+02	4.59120256e+11
1.47000000e+02	4.68993553e+11
1.48000000e+02	4.79019655e+11
1.49000000e+02	4.89199342e+11
1.50000000e+02	4.99533355e+11
1.51000000e+02	5.10022399e+11
1.52000000e+02	5.20667143e+11
1.53000000e+02	5.31468215e+11
1.54000000e+02	5.42426204e+11
1.55000000e+02	5.53541660e+11
1.56000000e+02	5.64815091e+11
1.57000000e+02	5.76246965e+11
1.58000000e+02	5.87837706e+11
1.59000000e+02	5.99587697e+11
1.60000000e+02	6.11497275e+11
1.61000000e+02	6.23566734e+11
1.62000000e+02	6.35796325e+11
1.63000000e+02	6.48186252e+11
1.64000000e+02	6.60736672e+11
1.65000000e+02	6.73447698e+11
1.66000000e+02	6.86319395e+11
1.67000000e+02	6.99351780e+11
1.68000000e+02	7.12544822e+11
1.69000000e+02	7.25898445e+11
1.70000000e+02	7.39412521e+11
1.71000000e+02	7.53086873e+11
1.72000000e+02	7.66921277e+11
1.73000000e+02	7.80915459e+11
1.74000000e+02	7.95069092e+11
1.75000000e+02	8.09381804e+11
1.76000000e+02	8.23853168e+11
1.77000000e+02	8.38482711e+11
1.78000000e+02	8.53269905e+11
1.79000000e+02	8.68214175e+11
1.80000000e+02	8.83314894e+11
1.81000000e+02	8.98571384e+11
1.82000000e+02	9.13982917e+11
1.83000000e+02	9.29548712e+11
1.84000000e+02	9.45267942e+11
1.85000000e+02	9.61139726e+11
1.86000000e+02	9.77163132e+11
1.87000000e+02	9.93337182e+11
1.88000000e+02	1.00966084e+12
1.89000000e+02	1.02613304e+12
1.90000000e+02	1.04275264e+12
1.91000000e+02	1.05951846e+12
1.92000000e+02	1.07642928e+12
1.93000000e+02	1.09348383e+12
1.94000000e+02	1.11068077e+12
1.95000000e+02	1.12801875e+12
1.96000000e+02	1.14549634e+12
1.97000000e+02	1.16311208e+12
1.98000000e+02	1.18086446e+12
1.99000000e+02	1.19875193e+12
2.00000000e+02	1.21677289e+12
2.01000000e+02	1.23492570e+12
2.02000000e+02	1.25320868e+12
2.03000000e+02	1.27162009e+12
2.04000000e+02	1.29015818e+12
2.05000000e+02	1.30882112e+12
2.06000000e+02	1.32760708e+12
2.07000000e+02	1.34651417e+12
2.08000000e+02	1.36554046e+12
2.09000000e+02	1.38468399e+12
2.10000000e+02	1.40394276e+12
2.11000000e+02	1.42331475e+12
2.12000000e+02	1.44279789e+12
2.13000000e+02	1.46239007e+12
2.14000000e+02	1.48208917e+12
2.15000000e+02	1.50189303e+12
2.16000000e+02	1.52179946e+12
2.17000000e+02	1.54180624e+12
2.18000000e+02	1.56191112e+12
2.19000000e+02	1.58211184e+12
2.20000000e+02	1.60240611e+12
2.21000000e+02	1.62279159e+12
2.22000000e+02	1.64326597e+12
2.23000000e+02	1.66382686e+12
2.24000000e+02	1.68447191e+12
2.25000000e+02	1.70519870e+12
2.26000000e+02	1.72600484e+12
2.27000000e+02	1.74688788e+12
2.28000000e+02	1.76784539e+12
2.29000000e+02	1.78887492e+12
2.30000000e+02	1.80997401e+12
2.31000000e+02	1.83114017e+12
2.32000000e+02	1.85237094e+12
2.33000000e+02	1.87366382e+12
2.34000000e+02	1.89501632e+12
2.35000000e+02	1.91642596e+12
2.36000000e+02	1.93789023e+12
2.37000000e+02	1.95940664e+12
2.38000000e+02	1.98097270e+12
2.39000000e+02	2.00258591e+12
2.40000000e+02	2.02424379e+12
2.41000000e+02	2.04594387e+12
2.42000000e+02	2.06768365e+12
2.43000000e+02	2.08946070e+12
2.44000000e+02	2.11127254e+12
2.45000000e+02	2.13311674e+12
2.46000000e+02	2.15499088e+12
2.47000000e+02	2.17689255e+12
2.48000000e+02	2.19881934e+12
2.49000000e+02	2.22076889e+12
2.50000000e+02	2.24273883e+12
2.51000000e+02	2.26472684e+12
2.52000000e+02	2.28673061e+12
2.53000000e+02	2.30874784e+12
2.54000000e+02	2.33077627e+12
2.55000000e+02	2.35281367e+12
2.56000000e+02	2.37485784e+12
2.57000000e+02	2.39690660e+12
2.58000000e+02	2.41895781e+12
2.59000000e+02	2.44100935e+12
2.60000000e+02	2.46305915e+12
2.61000000e+02	2.48510516e+12
2.62000000e+02	2.50714539e+12
2.63000000e+02	2.52917786e+12
2.64000000e+02	2.55120065e+12
2.65000000e+02	2.57321188e+12
2.66000000e+02	2.59520969e+12
2.67000000e+02	2.61719229e+12
2.68000000e+02	2.63915791e+12
2.69000000e+02	2.66110485e+12
2.70000000e+02	2.68303143e+12
2.71000000e+02	2.70493604e+12
2.72000000e+02	2.72681711e+12
2.73000000e+02	2.74867311e+12
2.74000000e+02	2.77050257e+12
2.75000000e+02	2.79230406e+12
2.76000000e+02	2.81407622e+12
2.77000000e+02	2.83581773e+12
2.78000000e+02	2.85752732e+12
2.79000000e+02	2.87920378e+12
2.80000000e+02	2.90084596e+12
2.81000000e+02	2.92245274e+12
2.82000000e+02	2.94402308e+12
2.83000000e+02	2.96555600e+12
2.84000000e+02	2.98705055e+12
2.85000000e+02	3.00850585e+12
2.86000000e+02	3.02992109e+12
2.87000000e+02	3.05129549e+12
2.88000000e+02	3.07262835e+12
2.89000000e+02	3.09391901e+12
2.90000000e+02	3.11516689e+12
2.91000000e+02	3.13637144e+12
2.92000000e+02	3.15753218e+12
2.93000000e+02	3.17864869e+12
2.94000000e+02	3.19972060e+12
2.95000000e+02	3.22074760e+12
2.96000000e+02	3.24172944e+12
2.97000000e+02	3.26266591e+12
2.98000000e+02	3.28355687e+12
2.99000000e+02	3.30440223e+12
3.00000000e+02	3.32520195e+12
3.01000000e+02	3.34595604e+12
3.02000000e+02	3.36666457e+12
3.03000000e+02	3.38732765e+12
3.04000000e+02	3.40794546e+12
3.05000000e+02	3.42851820e+12
3.06000000e+02	3.44904613e+12
3.07000000e+02	3.46952957e+12
3.08000000e+02	3.48996887e+12
3.09000000e+02	3.51036442e+12
3.10000000e+02	3.53071666e+12
3.11000000e+02	3.55102606e+12
3.12000000e+02	3.57129314e+12
3.13000000e+02	3.59151845e+12
3.14000000e+02	3.61170258e+12
3.15000000e+02	3.63184613e+12
3.16000000e+02	3.65194977e+12
3.17000000e+02	3.67201415e+12
3.18000000e+02	3.69204000e+12
3.19000000e+02	3.71202802e+12
3.20000000e+02	3.73197897e+12
3.21000000e+02	3.75189361e+12
3.22000000e+02	3.77177271e+12
3.23000000e+02	3.79161708e+12
3.24000000e+02	3.81142752e+12
3.25000000e+02	3.83120483e+12
3.26000000e+02	3.85094983e+12
3.27000000e+02	3.87066334e+12
3.28000000e+02	3.89034617e+12
3.29000000e+02	3.90999913e+12
3.30000000e+02	3.92962303e+12
3.31000000e+02	3.94921866e+12
3.32000000e+02	3.96878680e+12
3.33000000e+02	3.98832820e+12
3.34000000e+02	4.00784360e+12
3.35000000e+02	4.02733372e+12
3.36000000e+02	4.04679924e+12
3.37000000e+02	4.06624082e+12
3.38000000e+02	4.08565906e+12
3.39000000e+02	4.10505455e+12
3.40000000e+02	4.12442782e+12
3.41000000e+02	4.14377936e+12
3.42000000e+02	4.16310960e+12
3.43000000e+02	4.18241893e+12
3.44000000e+02	4.20170767e+12
3.45000000e+02	4.22097608e+12
3.46000000e+02	4.24022436e+12
3.47000000e+02	4.25945262e+12
3.48000000e+02	4.27866093e+12
3.49000000e+02	4.29784925e+12
3.50000000e+02	4.31701748e+12
3.51000000e+02	4.33616541e+12
3.52000000e+02	4.35529277e+12
3.53000000e+02	4.37439917e+12
3.54000000e+02	4.39348414e+12
3.55000000e+02	4.41254710e+12
3.56000000e+02	4.43158738e+12
3.57000000e+02	4.45060417e+12
3.58000000e+02	4.46959657e+12
3.59000000e+02	4.48856357e+12
3.60000000e+02	4.50750402e+12
3.61000000e+02	4.52641666e+12
3.62000000e+02	4.54530009e+12
3.63000000e+02	4.56415280e+12
3.64000000e+02	4.58297312e+12
3.65000000e+02	4.60175926e+12
3.66000000e+02	4.62050929e+12
3.67000000e+02	4.63922112e+12
3.68000000e+02	4.65789252e+12
3.69000000e+02	4.67652112e+12
3.70000000e+02	4.69510438e+12
3.71000000e+02	4.71363960e+12
3.72000000e+02	4.73212395e+12
3.73000000e+02	4.75055440e+12
3.74000000e+02	4.76892778e+12
3.75000000e+02	4.78724074e+12
3.76000000e+02	4.80548976e+12
3.77000000e+02	4.82367115e+12
3.78000000e+02	4.84178104e+12
3.79000000e+02	4.85981539e+12
3.80000000e+02	4.87776997e+12
3.81000000e+02	4.89564038e+12
3.82000000e+02	4.91342203e+12
3.83000000e+02	4.93111013e+12
3.84000000e+02	4.94869974e+12
3.85000000e+02	4.96618570e+12
3.86000000e+02	4.98356266e+12
3.87000000e+02	5.00082509e+12
3.88000000e+02	5.01796727e+12
3.89000000e+02	5.03498329e+12
3.90000000e+02	5.05186702e+12
3.91000000e+02	5.06861217e+12
3.92000000e+02	5.08521223e+12
3.93000000e+02	5.10166051e+12
3.94000000e+02	5.11795013e+12
3.95000000e+02	5.13407399e+12
3.96000000e+02	5.15002482e+12
3.97000000e+02	5.16579515e+12
3.98000000e+02	5.18137732e+12
3.99000000e+02	5.19676347e+12
4.00000000e+02	5.21194556e+12
4.01000000e+02	5.22691536e+12
4.02000000e+02	5.24166444e+12
4.03000000e+02	5.25618421e+12
4.04000000e+02	5.27046589e+12
4.05000000e+02	5.28450051e+12
4.06000000e+02	5.29827894e+12
4.07000000e+02	5.31179186e+12
4.08000000e+02	5.32502979e+12
4.09000000e+02	5.33798311e+12
4.10000000e+02	5.35064199e+12
4.11000000e+02	5.36299649e+12
4.12000000e+02	5.37503649e+12
4.13000000e+02	5.38675174e+12
4.14000000e+02	5.39813185e+12
4.15000000e+02	5.40916629e+12
4.16000000e+02	5.41984442e+12
4.17000000e+02	5.43015545e+12
4.18000000e+02	5.44008851e+12
4.19000000e+02	5.44963260e+12
4.20000000e+02	5.45877665e+12
4.21000000e+02	5.46750948e+12
4.22000000e+02	5.47581983e+12
4.23000000e+02	5.48369640e+12
4.24000000e+02	5.49112779e+12
4.25000000e+02	5.49810259e+12
4.26000000e+02	5.50460931e+12
4.27000000e+02	5.51063647e+12
4.28000000e+02	5.51617256e+12
4.29000000e+02	5.52120605e+12
4.30000000e+02	5.52572544e+12
4.31000000e+02	5.52971924e+12
4.32000000e+02	5.53317600e+12
4.33000000e+02	5.53608431e+12
4.34000000e+02	5.53843283e+12
4.35000000e+02	5.54021027e+12
4.36000000e+02	5.54140548e+12
4.37000000e+02	5.54200736e+12
4.38000000e+02	5.54200496e+12
4.39000000e+02	5.54138747e+12
4.40000000e+02	5.54014422e+12
4.41000000e+02	5.53826470e+12
4.42000000e+02	5.53573860e+12
4.43000000e+02	5.53255582e+12
4.44000000e+02	5.52870645e+12
4.45000000e+02	5.52418084e+12
4.46000000e+02	5.51896958e+12
4.47000000e+02	5.51306355e+12
4.48000000e+02	5.50645390e+12
4.49000000e+02	5.49913210e+12
4.50000000e+02	5.49108995e+12
4.51000000e+02	5.48231957e+12
4.52000000e+02	5.47281349e+12
4.53000000e+02	5.46256458e+12
4.54000000e+02	5.45156613e+12
4.55000000e+02	5.43981187e+12
4.56000000e+02	5.42729594e+12
4.57000000e+02	5.41401297e+12
4.58000000e+02	5.39995804e+12
4.59000000e+02	5.38512676e+12
4.60000000e+02	5.36951526e+12
4.61000000e+02	5.35312018e+12
4.62000000e+02	5.33593876e+12
4.63000000e+02	5.31796879e+12
4.64000000e+02	5.29920867e+12
4.65000000e+02	5.27965744e+12
4.66000000e+02	5.25931476e+12
4.67000000e+02	5.23818095e+12
4.68000000e+02	5.21625703e+12
4.69000000e+02	5.19354470e+12
4.70000000e+02	5.17004640e+12
4.71000000e+02	5.14576529e+12
4.72000000e+02	5.12070530e+12
4.73000000e+02	5.09487115e+12
4.74000000e+02	5.06826833e+12
4.75000000e+02	5.04090318e+12
4.76000000e+02	5.01278284e+12
4.77000000e+02	4.98391531e+12
4.78000000e+02	4.95430947e+12
4.79000000e+02	4.92397506e+12
4.80000000e+02	4.89292273e+12
4.81000000e+02	4.86116403e+12
4.82000000e+02	4.82871142e+12
4.83000000e+02	4.79557832e+12
4.84000000e+02	4.76177904e+12
4.85000000e+02	4.72732888e+12
4.86000000e+02	4.69224406e+12
4.87000000e+02	4.65654175e+12
4.88000000e+02	4.62024007e+12
4.89000000e+02	4.58335809e+12
4.90000000e+02	4.54591580e+12
4.91000000e+02	4.50793414e+12
4.92000000e+02	4.46943492e+12
4.93000000e+02	4.43044088e+12
4.94000000e+02	4.39097560e+12
4.95000000e+02	4.35106352e+12
4.96000000e+02	4.31072988e+12
4.97000000e+02	4.27000070e+12
4.98000000e+02	4.22890272e+12
4.99000000e+02	4.18746337e+12
5.00000000e+02	4.14571072e+12
5.01000000e+02	4.10367341e+12
5.02000000e+02	4.06138059e+12
5.03000000e+02	4.01886188e+12
5.04000000e+02	3.97614726e+12
5.05000000e+02	3.93326701e+12
5.06000000e+02	3.89025165e+12
5.07000000e+02	3.84713183e+12
5.08000000e+02	3.80393826e+12
5.09000000e+02	3.76070160e+12
5.10000000e+02	3.71745239e+12
5.11000000e+02	3.67422096e+12
5.12000000e+02	3.63103731e+12
5.13000000e+02	3.58793105e+12
5.14000000e+02	3.54493126e+12
5.15000000e+02	3.50206646e+12
5.16000000e+02	3.45936445e+12
5.17000000e+02	3.41685229e+12
5.18000000e+02	3.37455617e+12
5.19000000e+02	3.33250135e+12
5.20000000e+02	3.29071208e+12
5.21000000e+02	3.24921154e+12
5.22000000e+02	3.20802177e+12
5.23000000e+02	3.16716362e+12
5.24000000e+02	3.12665670e+12
5.25000000e+02	3.08651934e+12
5.26000000e+02	3.04676857e+12
5.27000000e+02	3.00742006e+12
5.28000000e+02	2.96848815e+12
5.29000000e+02	2.92998581e+12
5.30000000e+02	2.89192466e+12
5.31000000e+02	2.85431493e+12
5.32000000e+02	2.81716555e+12
5.33000000e+02	2.78048409e+12
5.34000000e+02	2.74427686e+12
5.35000000e+02	2.70854888e+12
5.36000000e+02	2.67330396e+12
5.37000000e+02	2.63854471e+12
5.38000000e+02	2.60427260e+12
5.39000000e+02	2.57048803e+12
5.40000000e+02	2.53719034e+12
5.41000000e+02	2.50437791e+12
5.42000000e+02	2.47204817e+12
5.43000000e+02	2.44019769e+12
5.44000000e+02	2.40882221e+12
5.45000000e+02	2.37791675e+12
5.46000000e+02	2.34747560e+12
5.47000000e+02	2.31749242e+12
5.48000000e+02	2.28796027e+12
5.49000000e+02	2.25887171e+12
5.50000000e+02	2.23021879e+12
5.51000000e+02	2.20199313e+12
5.52000000e+02	2.17418600e+12
5.53000000e+02	2.14678830e+12
5.54000000e+02	2.11979067e+12
5.55000000e+02	2.09318348e+12
5.56000000e+02	2.06695690e+12
5.57000000e+02	2.04110094e+12
5.58000000e+02	2.01560545e+12
5.59000000e+02	1.99046019e+12
5.60000000e+02	1.96565486e+12
5.61000000e+02	1.94117908e+12
5.62000000e+02	1.91702247e+12
5.63000000e+02	1.89317467e+12
5.64000000e+02	1.86962531e+12
5.65000000e+02	1.84636408e+12
5.66000000e+02	1.82338075e+12
5.67000000e+02	1.80066515e+12
5.68000000e+02	1.77820720e+12
5.69000000e+02	1.75599697e+12
5.70000000e+02	1.73402461e+12
5.71000000e+02	1.71228042e+12
5.72000000e+02	1.69075486e+12
5.73000000e+02	1.66943852e+12
5.74000000e+02	1.64832220e+12
5.75000000e+02	1.62739682e+12
5.76000000e+02	1.60665353e+12
5.77000000e+02	1.58608366e+12
5.78000000e+02	1.56567872e+12
5.79000000e+02	1.54543047e+12
5.80000000e+02	1.52533084e+12
5.81000000e+02	1.50537203e+12
5.82000000e+02	1.48554645e+12
5.83000000e+02	1.46584674e+12
5.84000000e+02	1.44626581e+12
5.85000000e+02	1.42679682e+12
5.86000000e+02	1.40743319e+12
5.87000000e+02	1.38816863e+12
5.88000000e+02	1.36899712e+12
5.89000000e+02	1.34991293e+12
5.90000000e+02	1.33091066e+12
5.91000000e+02	1.31198521e+12
5.92000000e+02	1.29313178e+12
5.93000000e+02	1.27434591e+12
5.94000000e+02	1.25562348e+12
5.95000000e+02	1.23696072e+12
5.96000000e+02	1.21835426e+12
5.97000000e+02	1.19980105e+12
5.98000000e+02	1.18129840e+12
5.99000000e+02	1.16284401e+12
6.00000000e+02	1.14443601e+12
6.01000000e+02	1.12607293e+12
6.02000000e+02	1.10775368e+12
6.03000000e+02	1.08947750e+12
6.04000000e+02	1.07124421e+12
6.05000000e+02	1.05305399e+12
6.06000000e+02	1.03490719e+12
6.07000000e+02	1.01680485e+12
6.08000000e+02	9.98748637e+11
6.09000000e+02	9.80739898e+11
6.10000000e+02	9.62781186e+11
6.11000000e+02	9.44874569e+11
6.12000000e+02	9.27023534e+11
6.13000000e+02	9.09230956e+11
6.14000000e+02	8.91501049e+11
6.15000000e+02	8.73837746e+11
6.16000000e+02	8.56244940e+11
6.17000000e+02	8.38728291e+11
6.18000000e+02	8.21291720e+11
6.19000000e+02	8.03941447e+11
6.20000000e+02	7.86682408e+11
6.21000000e+02	7.69520541e+11
6.22000000e+02	7.52462008e+11
6.23000000e+02	7.35512448e+11
6.24000000e+02	7.18678879e+11
6.25000000e+02	7.01966848e+11
6.26000000e+02	6.85383747e+11
6.27000000e+02	6.68935303e+11
6.28000000e+02	6.52628865e+11
6.29000000e+02	6.36470462e+11
6.30000000e+02	6.20466964e+11
6.31000000e+02	6.04624805e+11
6.32000000e+02	5.88950308e+11
6.33000000e+02	5.73450065e+11
6.34000000e+02	5.58129838e+11
6.35000000e+02	5.42996102e+11
6.36000000e+02	5.28054128e+11
6.37000000e+02	5.13310039e+11
6.38000000e+02	4.98768589e+11
6.39000000e+02	4.84435395e+11
6.40000000e+02	4.70314767e+11
6.41000000e+02	4.56411588e+11
6.42000000e+02	4.42729730e+11
6.43000000e+02	4.29273178e+11
6.44000000e+02	4.16045329e+11
6.45000000e+02	4.03049326e+11
6.46000000e+02	3.90287987e+11
6.47000000e+02	3.77763596e+11
6.48000000e+02	3.65478306e+11
6.49000000e+02	3.53433561e+11
6.50000000e+02	3.41630814e+11
6.51000000e+02	3.30070740e+11
6.52000000e+02	3.18754036e+11
6.53000000e+02	3.07680610e+11
6.54000000e+02	2.96850391e+11
6.55000000e+02	2.86262590e+11
6.56000000e+02	2.75916409e+11
6.57000000e+02	2.65810348e+11
6.58000000e+02	2.55942909e+11
6.59000000e+02	2.46311935e+11
