# Profil de FluxX au temps 6.000000000000061e-12 
# simu : /Volumes/MERCURE/JOBS/Zeq2_tanh_50mic_1p5e20_B0_20ps/GNU/FluxX@y-c.set
# col 0 : abscisse (um)
# col 1 : FluxX (W/cm2)
0.00000000e+00	0.00000000e+00
1.00000000e+00	9.79298454e+06
2.00000000e+00	1.94116729e+07
3.00000000e+00	2.95308004e+07
4.00000000e+00	3.93606345e+07
5.00000000e+00	4.92304882e+07
6.00000000e+00	5.91718521e+07
7.00000000e+00	6.92054775e+07
8.00000000e+00	7.93487472e+07
9.00000000e+00	8.96180936e+07
1.00000000e+01	1.00029933e+08
1.10000000e+01	1.10600883e+08
1.20000000e+01	1.21347816e+08
1.30000000e+01	1.32287885e+08
1.40000000e+01	1.43438549e+08
1.50000000e+01	1.54817599e+08
1.60000000e+01	1.66443190e+08
1.70000000e+01	1.78333861e+08
1.80000000e+01	1.90508574e+08
1.90000000e+01	2.02986739e+08
2.00000000e+01	2.15788244e+08
2.10000000e+01	2.28933484e+08
2.20000000e+01	2.42443402e+08
2.30000000e+01	2.56339511e+08
2.40000000e+01	2.70643935e+08
2.50000000e+01	2.85379442e+08
2.60000000e+01	3.00569478e+08
2.70000000e+01	3.16238208e+08
2.80000000e+01	3.32410545e+08
2.90000000e+01	3.49112198e+08
3.00000000e+01	3.66369706e+08
3.10000000e+01	3.84210484e+08
3.20000000e+01	4.02662862e+08
3.30000000e+01	4.21756131e+08
3.40000000e+01	4.41520586e+08
3.50000000e+01	4.61987578e+08
3.60000000e+01	4.83189553e+08
3.70000000e+01	5.05160113e+08
3.80000000e+01	5.27934062e+08
3.90000000e+01	5.51547456e+08
4.00000000e+01	5.76037670e+08
4.10000000e+01	6.01443440e+08
4.20000000e+01	6.27804933e+08
4.30000000e+01	6.55163807e+08
4.40000000e+01	6.83563269e+08
4.50000000e+01	7.13048148e+08
4.60000000e+01	7.43664955e+08
4.70000000e+01	7.75461961e+08
4.80000000e+01	8.08489265e+08
4.90000000e+01	8.42798871e+08
5.00000000e+01	8.78444766e+08
5.10000000e+01	9.15482998e+08
5.20000000e+01	9.53971767e+08
5.30000000e+01	9.93971506e+08
5.40000000e+01	1.03554497e+09
5.50000000e+01	1.07875733e+09
5.60000000e+01	1.12367628e+09
5.70000000e+01	1.17037210e+09
5.80000000e+01	1.21891783e+09
5.90000000e+01	1.26938929e+09
6.00000000e+01	1.32186526e+09
6.10000000e+01	1.37642756e+09
6.20000000e+01	1.43316117e+09
6.30000000e+01	1.49215436e+09
6.40000000e+01	1.55349883e+09
6.50000000e+01	1.61728980e+09
6.60000000e+01	1.68362621e+09
6.70000000e+01	1.75261079e+09
6.80000000e+01	1.82435024e+09
6.90000000e+01	1.89895541e+09
7.00000000e+01	1.97654138e+09
7.10000000e+01	2.05722769e+09
7.20000000e+01	2.14113847e+09
7.30000000e+01	2.22840263e+09
7.40000000e+01	2.31915400e+09
7.50000000e+01	2.41353157e+09
7.60000000e+01	2.51167963e+09
7.70000000e+01	2.61374799e+09
7.80000000e+01	2.71989216e+09
7.90000000e+01	2.83027357e+09
8.00000000e+01	2.94505981e+09
8.10000000e+01	3.06442479e+09
8.20000000e+01	3.18854902e+09
8.30000000e+01	3.31761982e+09
8.40000000e+01	3.45183155e+09
8.50000000e+01	3.59138589e+09
8.60000000e+01	3.73649209e+09
8.70000000e+01	3.88736720e+09
8.80000000e+01	4.04423639e+09
8.90000000e+01	4.20733318e+09
9.00000000e+01	4.37689976e+09
9.10000000e+01	4.55318729e+09
9.20000000e+01	4.73645619e+09
9.30000000e+01	4.92697643e+09
9.40000000e+01	5.12502790e+09
9.50000000e+01	5.33090071e+09
9.60000000e+01	5.54489552e+09
9.70000000e+01	5.76732392e+09
9.80000000e+01	5.99850876e+09
9.90000000e+01	6.23878452e+09
1.00000000e+02	6.48849770e+09
1.01000000e+02	6.74800720e+09
1.02000000e+02	7.01768470e+09
1.03000000e+02	7.29791507e+09
1.04000000e+02	7.58909681e+09
1.05000000e+02	7.89164243e+09
1.06000000e+02	8.20597895e+09
1.07000000e+02	8.53254825e+09
1.08000000e+02	8.87180762e+09
1.09000000e+02	9.22423017e+09
1.10000000e+02	9.59030531e+09
1.11000000e+02	9.97053926e+09
1.12000000e+02	1.03654555e+10
1.13000000e+02	1.07755954e+10
1.14000000e+02	1.12015184e+10
1.15000000e+02	1.16438032e+10
1.16000000e+02	1.21030474e+10
1.17000000e+02	1.25798688e+10
1.18000000e+02	1.30749056e+10
1.19000000e+02	1.35888172e+10
1.20000000e+02	1.41222843e+10
1.21000000e+02	1.46760102e+10
1.22000000e+02	1.52507206e+10
1.23000000e+02	1.58471649e+10
1.24000000e+02	1.64661164e+10
1.25000000e+02	1.71083731e+10
1.26000000e+02	1.77747582e+10
1.27000000e+02	1.84661209e+10
1.28000000e+02	1.91833369e+10
1.29000000e+02	1.99273091e+10
1.30000000e+02	2.06989684e+10
1.31000000e+02	2.14992741e+10
1.32000000e+02	2.23292148e+10
1.33000000e+02	2.31898089e+10
1.34000000e+02	2.40821055e+10
1.35000000e+02	2.50071849e+10
1.36000000e+02	2.59661592e+10
1.37000000e+02	2.69601733e+10
1.38000000e+02	2.79904055e+10
1.39000000e+02	2.90580680e+10
1.40000000e+02	3.01644075e+10
1.41000000e+02	3.13107065e+10
1.42000000e+02	3.24982833e+10
1.43000000e+02	3.37284930e+10
1.44000000e+02	3.50027282e+10
1.45000000e+02	3.63224195e+10
1.46000000e+02	3.76890364e+10
1.47000000e+02	3.91040878e+10
1.48000000e+02	4.05691224e+10
1.49000000e+02	4.20857300e+10
1.50000000e+02	4.36555413e+10
1.51000000e+02	4.52802293e+10
1.52000000e+02	4.69615092e+10
1.53000000e+02	4.87011394e+10
1.54000000e+02	5.05009220e+10
1.55000000e+02	5.23627031e+10
1.56000000e+02	5.42883736e+10
1.57000000e+02	5.62798694e+10
1.58000000e+02	5.83391723e+10
1.59000000e+02	6.04683098e+10
1.60000000e+02	6.26693560e+10
1.61000000e+02	6.49444320e+10
1.62000000e+02	6.72957059e+10
1.63000000e+02	6.97253932e+10
1.64000000e+02	7.22357573e+10
1.65000000e+02	7.48291095e+10
1.66000000e+02	7.75078094e+10
1.67000000e+02	8.02742649e+10
1.68000000e+02	8.31309322e+10
1.69000000e+02	8.60803162e+10
1.70000000e+02	8.91249702e+10
1.71000000e+02	9.22674960e+10
1.72000000e+02	9.55105439e+10
1.73000000e+02	9.88568124e+10
1.74000000e+02	1.02309048e+11
1.75000000e+02	1.05870045e+11
1.76000000e+02	1.09542646e+11
1.77000000e+02	1.13329740e+11
1.78000000e+02	1.17234262e+11
1.79000000e+02	1.21259195e+11
1.80000000e+02	1.25407566e+11
1.81000000e+02	1.29682449e+11
1.82000000e+02	1.34086960e+11
1.83000000e+02	1.38624260e+11
1.84000000e+02	1.43297553e+11
1.85000000e+02	1.48110084e+11
1.86000000e+02	1.53065139e+11
1.87000000e+02	1.58166044e+11
1.88000000e+02	1.63416164e+11
1.89000000e+02	1.68818901e+11
1.90000000e+02	1.74377693e+11
1.91000000e+02	1.80096013e+11
1.92000000e+02	1.85977367e+11
1.93000000e+02	1.92025293e+11
1.94000000e+02	1.98243359e+11
1.95000000e+02	2.04635162e+11
1.96000000e+02	2.11204324e+11
1.97000000e+02	2.17954494e+11
1.98000000e+02	2.24889341e+11
1.99000000e+02	2.32012558e+11
2.00000000e+02	2.39327854e+11
2.01000000e+02	2.46838955e+11
2.02000000e+02	2.54549602e+11
2.03000000e+02	2.62463547e+11
2.04000000e+02	2.70584551e+11
2.05000000e+02	2.78916383e+11
2.06000000e+02	2.87462814e+11
2.07000000e+02	2.96227620e+11
2.08000000e+02	3.05214571e+11
2.09000000e+02	3.14427436e+11
2.10000000e+02	3.23869977e+11
2.11000000e+02	3.33545944e+11
2.12000000e+02	3.43459076e+11
2.13000000e+02	3.53613094e+11
2.14000000e+02	3.64011702e+11
2.15000000e+02	3.74658578e+11
2.16000000e+02	3.85557377e+11
2.17000000e+02	3.96711724e+11
2.18000000e+02	4.08125210e+11
2.19000000e+02	4.19801392e+11
2.20000000e+02	4.31743785e+11
2.21000000e+02	4.43955863e+11
2.22000000e+02	4.56441053e+11
2.23000000e+02	4.69202731e+11
2.24000000e+02	4.82244219e+11
2.25000000e+02	4.95568782e+11
2.26000000e+02	5.09179623e+11
2.27000000e+02	5.23079881e+11
2.28000000e+02	5.37272626e+11
2.29000000e+02	5.51760856e+11
2.30000000e+02	5.66547492e+11
2.31000000e+02	5.81635377e+11
2.32000000e+02	5.97027268e+11
2.33000000e+02	6.12725837e+11
2.34000000e+02	6.28733664e+11
2.35000000e+02	6.45053237e+11
2.36000000e+02	6.61686943e+11
2.37000000e+02	6.78637068e+11
2.38000000e+02	6.95905795e+11
2.39000000e+02	7.13495197e+11
2.40000000e+02	7.31407234e+11
2.41000000e+02	7.49643752e+11
2.42000000e+02	7.68206477e+11
2.43000000e+02	7.87097016e+11
2.44000000e+02	8.06316847e+11
2.45000000e+02	8.25867323e+11
2.46000000e+02	8.45749664e+11
2.47000000e+02	8.65964955e+11
2.48000000e+02	8.86514147e+11
2.49000000e+02	9.07398048e+11
2.50000000e+02	9.28617326e+11
2.51000000e+02	9.50172503e+11
2.52000000e+02	9.72063955e+11
2.53000000e+02	9.94291906e+11
2.54000000e+02	1.01685643e+12
2.55000000e+02	1.03975745e+12
2.56000000e+02	1.06299472e+12
2.57000000e+02	1.08656786e+12
2.58000000e+02	1.11047631e+12
2.59000000e+02	1.13471936e+12
2.60000000e+02	1.15929613e+12
2.61000000e+02	1.18420558e+12
2.62000000e+02	1.20944652e+12
2.63000000e+02	1.23501758e+12
2.64000000e+02	1.26091721e+12
2.65000000e+02	1.28714373e+12
2.66000000e+02	1.31369526e+12
2.67000000e+02	1.34056978e+12
2.68000000e+02	1.36776507e+12
2.69000000e+02	1.39527878e+12
2.70000000e+02	1.42310837e+12
2.71000000e+02	1.45125113e+12
2.72000000e+02	1.47970420e+12
2.73000000e+02	1.50846455e+12
2.74000000e+02	1.53752898e+12
2.75000000e+02	1.56689413e+12
2.76000000e+02	1.59655649e+12
2.77000000e+02	1.62651236e+12
2.78000000e+02	1.65675792e+12
2.79000000e+02	1.68728915e+12
2.80000000e+02	1.71810192e+12
2.81000000e+02	1.74919192e+12
2.82000000e+02	1.78055469e+12
2.83000000e+02	1.81218564e+12
2.84000000e+02	1.84408000e+12
2.85000000e+02	1.87623290e+12
2.86000000e+02	1.90863931e+12
2.87000000e+02	1.94129405e+12
2.88000000e+02	1.97419182e+12
2.89000000e+02	2.00732721e+12
2.90000000e+02	2.04069464e+12
2.91000000e+02	2.07428845e+12
2.92000000e+02	2.10810283e+12
2.93000000e+02	2.14213187e+12
2.94000000e+02	2.17636955e+12
2.95000000e+02	2.21080974e+12
2.96000000e+02	2.24544619e+12
2.97000000e+02	2.28027259e+12
2.98000000e+02	2.31528251e+12
2.99000000e+02	2.35046943e+12
3.00000000e+02	2.38582675e+12
3.01000000e+02	2.42134780e+12
3.02000000e+02	2.45702582e+12
3.03000000e+02	2.49285399e+12
3.04000000e+02	2.52882542e+12
3.05000000e+02	2.56493316e+12
3.06000000e+02	2.60117022e+12
3.07000000e+02	2.63752953e+12
3.08000000e+02	2.67400400e+12
3.09000000e+02	2.71058649e+12
3.10000000e+02	2.74726984e+12
3.11000000e+02	2.78404684e+12
3.12000000e+02	2.82091028e+12
3.13000000e+02	2.85785290e+12
3.14000000e+02	2.89486746e+12
3.15000000e+02	2.93194669e+12
3.16000000e+02	2.96908332e+12
3.17000000e+02	3.00627010e+12
3.18000000e+02	3.04349977e+12
3.19000000e+02	3.08076509e+12
3.20000000e+02	3.11805883e+12
3.21000000e+02	3.15537379e+12
3.22000000e+02	3.19270279e+12
3.23000000e+02	3.23003870e+12
3.24000000e+02	3.26737440e+12
3.25000000e+02	3.30470284e+12
3.26000000e+02	3.34201699e+12
3.27000000e+02	3.37930990e+12
3.28000000e+02	3.41657464e+12
3.29000000e+02	3.45380438e+12
3.30000000e+02	3.49099230e+12
3.31000000e+02	3.52813171e+12
3.32000000e+02	3.56521594e+12
3.33000000e+02	3.60223841e+12
3.34000000e+02	3.63919263e+12
3.35000000e+02	3.67607218e+12
3.36000000e+02	3.71287072e+12
3.37000000e+02	3.74958200e+12
3.38000000e+02	3.78619988e+12
3.39000000e+02	3.82271826e+12
3.40000000e+02	3.85913120e+12
3.41000000e+02	3.89543279e+12
3.42000000e+02	3.93161728e+12
3.43000000e+02	3.96767897e+12
3.44000000e+02	4.00361227e+12
3.45000000e+02	4.03941172e+12
3.46000000e+02	4.07507193e+12
3.47000000e+02	4.11058762e+12
3.48000000e+02	4.14595361e+12
3.49000000e+02	4.18116484e+12
3.50000000e+02	4.21621632e+12
3.51000000e+02	4.25110318e+12
3.52000000e+02	4.28582065e+12
3.53000000e+02	4.32036406e+12
3.54000000e+02	4.35472881e+12
3.55000000e+02	4.38891042e+12
3.56000000e+02	4.42290449e+12
3.57000000e+02	4.45670672e+12
3.58000000e+02	4.49031287e+12
3.59000000e+02	4.52371880e+12
3.60000000e+02	4.55692044e+12
3.61000000e+02	4.58991380e+12
3.62000000e+02	4.62269495e+12
3.63000000e+02	4.65526003e+12
3.64000000e+02	4.68760522e+12
3.65000000e+02	4.71972678e+12
3.66000000e+02	4.75162099e+12
3.67000000e+02	4.78328418e+12
3.68000000e+02	4.81471271e+12
3.69000000e+02	4.84590296e+12
3.70000000e+02	4.87685135e+12
3.71000000e+02	4.90755426e+12
3.72000000e+02	4.93800813e+12
3.73000000e+02	4.96820934e+12
3.74000000e+02	4.99815429e+12
3.75000000e+02	5.02783934e+12
3.76000000e+02	5.05726080e+12
3.77000000e+02	5.08641497e+12
3.78000000e+02	5.11529805e+12
3.79000000e+02	5.14390621e+12
3.80000000e+02	5.17223553e+12
3.81000000e+02	5.20028199e+12
3.82000000e+02	5.22804151e+12
3.83000000e+02	5.25550985e+12
3.84000000e+02	5.28268270e+12
3.85000000e+02	5.30955557e+12
3.86000000e+02	5.33612387e+12
3.87000000e+02	5.36238283e+12
3.88000000e+02	5.38832754e+12
3.89000000e+02	5.41395287e+12
3.90000000e+02	5.43925356e+12
3.91000000e+02	5.46422410e+12
3.92000000e+02	5.48885880e+12
3.93000000e+02	5.51315175e+12
3.94000000e+02	5.53709680e+12
3.95000000e+02	5.56068757e+12
3.96000000e+02	5.58391742e+12
3.97000000e+02	5.60677946e+12
3.98000000e+02	5.62926653e+12
3.99000000e+02	5.65137119e+12
4.00000000e+02	5.67308573e+12
4.01000000e+02	5.69440214e+12
4.02000000e+02	5.71531210e+12
4.03000000e+02	5.73580702e+12
4.04000000e+02	5.75587797e+12
4.05000000e+02	5.77551572e+12
4.06000000e+02	5.79471073e+12
4.07000000e+02	5.81345312e+12
4.08000000e+02	5.83173272e+12
4.09000000e+02	5.84953901e+12
4.10000000e+02	5.86686115e+12
4.11000000e+02	5.88368801e+12
4.12000000e+02	5.90000811e+12
4.13000000e+02	5.91580965e+12
4.14000000e+02	5.93108054e+12
4.15000000e+02	5.94580838e+12
4.16000000e+02	5.95998046e+12
4.17000000e+02	5.97358379e+12
4.18000000e+02	5.98660507e+12
4.19000000e+02	5.99903077e+12
4.20000000e+02	6.01084705e+12
4.21000000e+02	6.02203987e+12
4.22000000e+02	6.03259491e+12
4.23000000e+02	6.04249767e+12
4.24000000e+02	6.05173342e+12
4.25000000e+02	6.06028724e+12
4.26000000e+02	6.06814408e+12
4.27000000e+02	6.07528870e+12
4.28000000e+02	6.08170576e+12
4.29000000e+02	6.08737981e+12
4.30000000e+02	6.09229534e+12
4.31000000e+02	6.09643676e+12
4.32000000e+02	6.09978848e+12
4.33000000e+02	6.10233489e+12
4.34000000e+02	6.10406043e+12
4.35000000e+02	6.10494959e+12
4.36000000e+02	6.10498695e+12
4.37000000e+02	6.10415723e+12
4.38000000e+02	6.10244530e+12
4.39000000e+02	6.09983620e+12
4.40000000e+02	6.09631523e+12
4.41000000e+02	6.09186794e+12
4.42000000e+02	6.08648017e+12
4.43000000e+02	6.08013811e+12
4.44000000e+02	6.07282831e+12
4.45000000e+02	6.06453774e+12
4.46000000e+02	6.05525384e+12
4.47000000e+02	6.04496450e+12
4.48000000e+02	6.03365818e+12
4.49000000e+02	6.02132390e+12
4.50000000e+02	6.00795130e+12
4.51000000e+02	5.99353064e+12
4.52000000e+02	5.97805293e+12
4.53000000e+02	5.96150987e+12
4.54000000e+02	5.94389395e+12
4.55000000e+02	5.92519849e+12
4.56000000e+02	5.90541765e+12
4.57000000e+02	5.88454650e+12
4.58000000e+02	5.86258103e+12
4.59000000e+02	5.83951824e+12
4.60000000e+02	5.81535609e+12
4.61000000e+02	5.79009366e+12
4.62000000e+02	5.76373105e+12
4.63000000e+02	5.73626954e+12
4.64000000e+02	5.70771154e+12
4.65000000e+02	5.67806066e+12
4.66000000e+02	5.64732173e+12
4.67000000e+02	5.61550083e+12
4.68000000e+02	5.58260535e+12
4.69000000e+02	5.54864395e+12
4.70000000e+02	5.51362665e+12
4.71000000e+02	5.47756480e+12
4.72000000e+02	5.44047115e+12
4.73000000e+02	5.40235982e+12
4.74000000e+02	5.36324635e+12
4.75000000e+02	5.32314765e+12
4.76000000e+02	5.28208209e+12
4.77000000e+02	5.24006944e+12
4.78000000e+02	5.19713087e+12
4.79000000e+02	5.15328897e+12
4.80000000e+02	5.10856771e+12
4.81000000e+02	5.06299243e+12
4.82000000e+02	5.01658983e+12
4.83000000e+02	4.96938790e+12
4.84000000e+02	4.92141592e+12
4.85000000e+02	4.87270440e+12
4.86000000e+02	4.82328502e+12
4.87000000e+02	4.77319059e+12
4.88000000e+02	4.72245495e+12
4.89000000e+02	4.67111294e+12
4.90000000e+02	4.61920027e+12
4.91000000e+02	4.56675347e+12
4.92000000e+02	4.51380977e+12
4.93000000e+02	4.46040701e+12
4.94000000e+02	4.40658350e+12
4.95000000e+02	4.35237795e+12
4.96000000e+02	4.29782930e+12
4.97000000e+02	4.24297663e+12
4.98000000e+02	4.18785900e+12
4.99000000e+02	4.13251533e+12
5.00000000e+02	4.07698426e+12
5.01000000e+02	4.02130401e+12
5.02000000e+02	3.96551224e+12
5.03000000e+02	3.90964593e+12
5.04000000e+02	3.85374123e+12
5.05000000e+02	3.79783331e+12
5.06000000e+02	3.74195630e+12
5.07000000e+02	3.68614310e+12
5.08000000e+02	3.63042531e+12
5.09000000e+02	3.57483313e+12
5.10000000e+02	3.51939525e+12
5.11000000e+02	3.46413877e+12
5.12000000e+02	3.40908916e+12
5.13000000e+02	3.35427017e+12
5.14000000e+02	3.29970380e+12
5.15000000e+02	3.24541028e+12
5.16000000e+02	3.19140802e+12
5.17000000e+02	3.13771364e+12
5.18000000e+02	3.08434196e+12
5.19000000e+02	3.03130603e+12
5.20000000e+02	2.97861717e+12
5.21000000e+02	2.92628497e+12
5.22000000e+02	2.87431742e+12
5.23000000e+02	2.82272092e+12
5.24000000e+02	2.77150038e+12
5.25000000e+02	2.72065927e+12
5.26000000e+02	2.67019979e+12
5.27000000e+02	2.62012287e+12
5.28000000e+02	2.57042835e+12
5.29000000e+02	2.52111504e+12
5.30000000e+02	2.47218086e+12
5.31000000e+02	2.42362295e+12
5.32000000e+02	2.37543778e+12
5.33000000e+02	2.32762125e+12
5.34000000e+02	2.28016887e+12
5.35000000e+02	2.23307580e+12
5.36000000e+02	2.18633700e+12
5.37000000e+02	2.13994739e+12
5.38000000e+02	2.09390187e+12
5.39000000e+02	2.04819552e+12
5.40000000e+02	2.00282366e+12
5.41000000e+02	1.95778195e+12
5.42000000e+02	1.91306653e+12
5.43000000e+02	1.86867407e+12
5.44000000e+02	1.82460192e+12
5.45000000e+02	1.78084811e+12
5.46000000e+02	1.73741154e+12
5.47000000e+02	1.69429196e+12
5.48000000e+02	1.65149009e+12
5.49000000e+02	1.60900768e+12
5.50000000e+02	1.56684757e+12
5.51000000e+02	1.52501369e+12
5.52000000e+02	1.48351118e+12
5.53000000e+02	1.44234635e+12
5.54000000e+02	1.40152674e+12
5.55000000e+02	1.36106113e+12
5.56000000e+02	1.32095951e+12
5.57000000e+02	1.28123313e+12
5.58000000e+02	1.24189441e+12
5.59000000e+02	1.20295697e+12
5.60000000e+02	1.16443554e+12
5.61000000e+02	1.12634592e+12
5.62000000e+02	1.08870491e+12
5.63000000e+02	1.05153025e+12
5.64000000e+02	1.01484047e+12
5.65000000e+02	9.78654853e+11
5.66000000e+02	9.42993258e+11
5.67000000e+02	9.07876025e+11
5.68000000e+02	8.73323830e+11
5.69000000e+02	8.39357532e+11
5.70000000e+02	8.05998025e+11
5.71000000e+02	7.73266070e+11
5.72000000e+02	7.41182137e+11
5.73000000e+02	7.09766230e+11
5.74000000e+02	6.79037721e+11
5.75000000e+02	6.49015182e+11
5.76000000e+02	6.19716217e+11
5.77000000e+02	5.91157304e+11
5.78000000e+02	5.63353642e+11
5.79000000e+02	5.36319009e+11
5.80000000e+02	5.10065627e+11
5.81000000e+02	4.84604046e+11
5.82000000e+02	4.59943038e+11
5.83000000e+02	4.36089510e+11
5.84000000e+02	4.13048432e+11
5.85000000e+02	3.90822788e+11
5.86000000e+02	3.69413540e+11
5.87000000e+02	3.48819614e+11
5.88000000e+02	3.29037905e+11
5.89000000e+02	3.10063305e+11
5.90000000e+02	2.91888738e+11
5.91000000e+02	2.74505227e+11
5.92000000e+02	2.57901967e+11
5.93000000e+02	2.42066414e+11
5.94000000e+02	2.26984393e+11
5.95000000e+02	2.12640208e+11
5.96000000e+02	1.99016775e+11
5.97000000e+02	1.86095749e+11
5.98000000e+02	1.73857665e+11
5.99000000e+02	1.62282082e+11
6.00000000e+02	1.51347726e+11
6.01000000e+02	1.41032631e+11
6.02000000e+02	1.31314285e+11
6.03000000e+02	1.22169769e+11
6.04000000e+02	1.13575902e+11
6.05000000e+02	1.05509354e+11
6.06000000e+02	9.79467806e+10
6.07000000e+02	9.08649258e+10
6.08000000e+02	8.42407390e+10
6.09000000e+02	7.80514666e+10
6.10000000e+02	7.22747408e+10
6.11000000e+02	6.68886576e+10
6.12000000e+02	6.18718456e+10
6.13000000e+02	5.72035254e+10
6.14000000e+02	5.28635592e+10
6.15000000e+02	4.88324923e+10
6.16000000e+02	4.50915864e+10
6.17000000e+02	4.16228436e+10
6.18000000e+02	3.84090246e+10
6.19000000e+02	3.54336589e+10
6.20000000e+02	3.26810492e+10
6.21000000e+02	3.01362707e+10
6.22000000e+02	2.77851646e+10
6.23000000e+02	2.56143281e+10
6.24000000e+02	2.36110991e+10
6.25000000e+02	2.17635390e+10
6.26000000e+02	2.00604123e+10
6.27000000e+02	1.84911637e+10
6.28000000e+02	1.70458944e+10
6.29000000e+02	1.57153356e+10
6.30000000e+02	1.44908217e+10
6.31000000e+02	1.33642632e+10
6.32000000e+02	1.23281187e+10
6.33000000e+02	1.13753676e+10
6.34000000e+02	1.04994814e+10
6.35000000e+02	9.69439727e+09
6.36000000e+02	8.95449099e+09
6.37000000e+02	8.27455089e+09
6.38000000e+02	7.64975239e+09
6.39000000e+02	7.07563362e+09
6.40000000e+02	6.54807218e+09
6.41000000e+02	6.06326240e+09
6.42000000e+02	5.61769390e+09
6.43000000e+02	5.20813134e+09
6.44000000e+02	4.83159500e+09
6.45000000e+02	4.48534246e+09
6.46000000e+02	4.16685139e+09
6.47000000e+02	3.87380333e+09
6.48000000e+02	3.60406842e+09
6.49000000e+02	3.35569110e+09
6.50000000e+02	3.12687677e+09
6.51000000e+02	2.91597933e+09
6.52000000e+02	2.72148948e+09
6.53000000e+02	2.54202392e+09
6.54000000e+02	2.37631532e+09
6.55000000e+02	2.22320291e+09
6.56000000e+02	2.08162382e+09
6.57000000e+02	1.95060509e+09
6.58000000e+02	1.82925622e+09
6.59000000e+02	1.71676229e+09
