# Profil de FluxX au temps 1.100000000000014e-11 
# simu : /Volumes/MERCURE/JOBS/Zeq2_tanh_50mic_1p5e20_B0_20ps/GNU/FluxX@y-c.set
# col 0 : abscisse (um)
# col 1 : FluxX (W/cm2)
0.00000000e+00	0.00000000e+00
1.00000000e+00	2.85768087e+09
2.00000000e+00	5.71653148e+09
3.00000000e+00	8.57856843e+09
4.00000000e+00	1.14443404e+10
5.00000000e+00	1.43155236e+10
6.00000000e+00	1.71934867e+10
7.00000000e+00	2.00795922e+10
8.00000000e+00	2.29751974e+10
9.00000000e+00	2.58816568e+10
1.00000000e+01	2.88003235e+10
1.10000000e+01	3.17325501e+10
1.20000000e+01	3.46796883e+10
1.30000000e+01	3.76430856e+10
1.40000000e+01	4.06240913e+10
1.50000000e+01	4.36240525e+10
1.60000000e+01	4.66443118e+10
1.70000000e+01	4.96862104e+10
1.80000000e+01	5.27510908e+10
1.90000000e+01	5.58402878e+10
2.00000000e+01	5.89551372e+10
2.10000000e+01	6.20969719e+10
2.20000000e+01	6.52671184e+10
2.30000000e+01	6.84669069e+10
2.40000000e+01	7.16976543e+10
2.50000000e+01	7.49606868e+10
2.60000000e+01	7.82573140e+10
2.70000000e+01	8.15888535e+10
2.80000000e+01	8.49566066e+10
2.90000000e+01	8.83618842e+10
3.00000000e+01	9.18059797e+10
3.10000000e+01	9.52901917e+10
3.20000000e+01	9.88158078e+10
3.30000000e+01	1.02384114e+11
3.40000000e+01	1.05996391e+11
3.50000000e+01	1.09653910e+11
3.60000000e+01	1.13357942e+11
3.70000000e+01	1.17109747e+11
3.80000000e+01	1.20910585e+11
3.90000000e+01	1.24761703e+11
4.00000000e+01	1.28664344e+11
4.10000000e+01	1.32619747e+11
4.20000000e+01	1.36629137e+11
4.30000000e+01	1.40693740e+11
4.40000000e+01	1.44814768e+11
4.50000000e+01	1.48993424e+11
4.60000000e+01	1.53230910e+11
4.70000000e+01	1.57528414e+11
4.80000000e+01	1.61887113e+11
4.90000000e+01	1.66308182e+11
5.00000000e+01	1.70792781e+11
5.10000000e+01	1.75342060e+11
5.20000000e+01	1.79957164e+11
5.30000000e+01	1.84639223e+11
5.40000000e+01	1.89389356e+11
5.50000000e+01	1.94208676e+11
5.60000000e+01	1.99098280e+11
5.70000000e+01	2.04059252e+11
5.80000000e+01	2.09092671e+11
5.90000000e+01	2.14199599e+11
6.00000000e+01	2.19381082e+11
6.10000000e+01	2.24638163e+11
6.20000000e+01	2.29971863e+11
6.30000000e+01	2.35383203e+11
6.40000000e+01	2.40873173e+11
6.50000000e+01	2.46442754e+11
6.60000000e+01	2.52092908e+11
6.70000000e+01	2.57824590e+11
6.80000000e+01	2.63638736e+11
6.90000000e+01	2.69536267e+11
7.00000000e+01	2.75518085e+11
7.10000000e+01	2.81585083e+11
7.20000000e+01	2.87738131e+11
7.30000000e+01	2.93978082e+11
7.40000000e+01	3.00305775e+11
7.50000000e+01	3.06722029e+11
7.60000000e+01	3.13227645e+11
7.70000000e+01	3.19823404e+11
7.80000000e+01	3.26510073e+11
7.90000000e+01	3.33288396e+11
8.00000000e+01	3.40159095e+11
8.10000000e+01	3.47122879e+11
8.20000000e+01	3.54180451e+11
8.30000000e+01	3.61332488e+11
8.40000000e+01	3.68579612e+11
8.50000000e+01	3.75922441e+11
8.60000000e+01	3.83361571e+11
8.70000000e+01	3.90897580e+11
8.80000000e+01	3.98531024e+11
8.90000000e+01	4.06262438e+11
9.00000000e+01	4.14092331e+11
9.10000000e+01	4.22021193e+11
9.20000000e+01	4.30049488e+11
9.30000000e+01	4.38177657e+11
9.40000000e+01	4.46406117e+11
9.50000000e+01	4.54735263e+11
9.60000000e+01	4.63165461e+11
9.70000000e+01	4.71697057e+11
9.80000000e+01	4.80330370e+11
9.90000000e+01	4.89065693e+11
1.00000000e+02	4.97903295e+11
1.01000000e+02	5.06843419e+11
1.02000000e+02	5.15886281e+11
1.03000000e+02	5.25032074e+11
1.04000000e+02	5.34280962e+11
1.05000000e+02	5.43633083e+11
1.06000000e+02	5.53088550e+11
1.07000000e+02	5.62647447e+11
1.08000000e+02	5.72309833e+11
1.09000000e+02	5.82075738e+11
1.10000000e+02	5.91945168e+11
1.11000000e+02	6.01918099e+11
1.12000000e+02	6.11994480e+11
1.13000000e+02	6.22174234e+11
1.14000000e+02	6.32457254e+11
1.15000000e+02	6.42843408e+11
1.16000000e+02	6.53332535e+11
1.17000000e+02	6.63924446e+11
1.18000000e+02	6.74618925e+11
1.19000000e+02	6.85415727e+11
1.20000000e+02	6.96314581e+11
1.21000000e+02	7.07315187e+11
1.22000000e+02	7.18417218e+11
1.23000000e+02	7.29620317e+11
1.24000000e+02	7.40924104e+11
1.25000000e+02	7.52328166e+11
1.26000000e+02	7.63832066e+11
1.27000000e+02	7.75435338e+11
1.28000000e+02	7.87137490e+11
1.29000000e+02	7.98938001e+11
1.30000000e+02	8.10836325e+11
1.31000000e+02	8.22831887e+11
1.32000000e+02	8.34924087e+11
1.33000000e+02	8.47112297e+11
1.34000000e+02	8.59395863e+11
1.35000000e+02	8.71774105e+11
1.36000000e+02	8.84246317e+11
1.37000000e+02	8.96811768e+11
1.38000000e+02	9.09469700e+11
1.39000000e+02	9.22219331e+11
1.40000000e+02	9.35059853e+11
1.41000000e+02	9.47990435e+11
1.42000000e+02	9.61010220e+11
1.43000000e+02	9.74118327e+11
1.44000000e+02	9.87313853e+11
1.45000000e+02	1.00059587e+12
1.46000000e+02	1.01396343e+12
1.47000000e+02	1.02741556e+12
1.48000000e+02	1.04095126e+12
1.49000000e+02	1.05456951e+12
1.50000000e+02	1.06826929e+12
1.51000000e+02	1.08204952e+12
1.52000000e+02	1.09590914e+12
1.53000000e+02	1.10984703e+12
1.54000000e+02	1.12386209e+12
1.55000000e+02	1.13795317e+12
1.56000000e+02	1.15211912e+12
1.57000000e+02	1.16635876e+12
1.58000000e+02	1.18067091e+12
1.59000000e+02	1.19505434e+12
1.60000000e+02	1.20950785e+12
1.61000000e+02	1.22403018e+12
1.62000000e+02	1.23862008e+12
1.63000000e+02	1.25327628e+12
1.64000000e+02	1.26799749e+12
1.65000000e+02	1.28278242e+12
1.66000000e+02	1.29762976e+12
1.67000000e+02	1.31253818e+12
1.68000000e+02	1.32750635e+12
1.69000000e+02	1.34253291e+12
1.70000000e+02	1.35761652e+12
1.71000000e+02	1.37275581e+12
1.72000000e+02	1.38794941e+12
1.73000000e+02	1.40319592e+12
1.74000000e+02	1.41849397e+12
1.75000000e+02	1.43384214e+12
1.76000000e+02	1.44923905e+12
1.77000000e+02	1.46468328e+12
1.78000000e+02	1.48017341e+12
1.79000000e+02	1.49570803e+12
1.80000000e+02	1.51128572e+12
1.81000000e+02	1.52690505e+12
1.82000000e+02	1.54256459e+12
1.83000000e+02	1.55826293e+12
1.84000000e+02	1.57399862e+12
1.85000000e+02	1.58977025e+12
1.86000000e+02	1.60557639e+12
1.87000000e+02	1.62141561e+12
1.88000000e+02	1.63728649e+12
1.89000000e+02	1.65318762e+12
1.90000000e+02	1.66911757e+12
1.91000000e+02	1.68507495e+12
1.92000000e+02	1.70105834e+12
1.93000000e+02	1.71706634e+12
1.94000000e+02	1.73309758e+12
1.95000000e+02	1.74915066e+12
1.96000000e+02	1.76522420e+12
1.97000000e+02	1.78131686e+12
1.98000000e+02	1.79742726e+12
1.99000000e+02	1.81355407e+12
2.00000000e+02	1.82969595e+12
2.01000000e+02	1.84585158e+12
2.02000000e+02	1.86201967e+12
2.03000000e+02	1.87819890e+12
2.04000000e+02	1.89438801e+12
2.05000000e+02	1.91058573e+12
2.06000000e+02	1.92679081e+12
2.07000000e+02	1.94300203e+12
2.08000000e+02	1.95921816e+12
2.09000000e+02	1.97543801e+12
2.10000000e+02	1.99166041e+12
2.11000000e+02	2.00788419e+12
2.12000000e+02	2.02410823e+12
2.13000000e+02	2.04033140e+12
2.14000000e+02	2.05655260e+12
2.15000000e+02	2.07277077e+12
2.16000000e+02	2.08898485e+12
2.17000000e+02	2.10519382e+12
2.18000000e+02	2.12139667e+12
2.19000000e+02	2.13759242e+12
2.20000000e+02	2.15378012e+12
2.21000000e+02	2.16995883e+12
2.22000000e+02	2.18612767e+12
2.23000000e+02	2.20228574e+12
2.24000000e+02	2.21843221e+12
2.25000000e+02	2.23456625e+12
2.26000000e+02	2.25068706e+12
2.27000000e+02	2.26679389e+12
2.28000000e+02	2.28288601e+12
2.29000000e+02	2.29896270e+12
2.30000000e+02	2.31502329e+12
2.31000000e+02	2.33106713e+12
2.32000000e+02	2.34709362e+12
2.33000000e+02	2.36310217e+12
2.34000000e+02	2.37909223e+12
2.35000000e+02	2.39506328e+12
2.36000000e+02	2.41101484e+12
2.37000000e+02	2.42694645e+12
2.38000000e+02	2.44285769e+12
2.39000000e+02	2.45874818e+12
2.40000000e+02	2.47461755e+12
2.41000000e+02	2.49046550e+12
2.42000000e+02	2.50629172e+12
2.43000000e+02	2.52209597e+12
2.44000000e+02	2.53787803e+12
2.45000000e+02	2.55363772e+12
2.46000000e+02	2.56937488e+12
2.47000000e+02	2.58508939e+12
2.48000000e+02	2.60078118e+12
2.49000000e+02	2.61645020e+12
2.50000000e+02	2.63209643e+12
2.51000000e+02	2.64771990e+12
2.52000000e+02	2.66332065e+12
2.53000000e+02	2.67889878e+12
2.54000000e+02	2.69445441e+12
2.55000000e+02	2.70998770e+12
2.56000000e+02	2.72549884e+12
2.57000000e+02	2.74098805e+12
2.58000000e+02	2.75645558e+12
2.59000000e+02	2.77190173e+12
2.60000000e+02	2.78732682e+12
2.61000000e+02	2.80273120e+12
2.62000000e+02	2.81811526e+12
2.63000000e+02	2.83347942e+12
2.64000000e+02	2.84882412e+12
2.65000000e+02	2.86414983e+12
2.66000000e+02	2.87945708e+12
2.67000000e+02	2.89474639e+12
2.68000000e+02	2.91001834e+12
2.69000000e+02	2.92527351e+12
2.70000000e+02	2.94051253e+12
2.71000000e+02	2.95573604e+12
2.72000000e+02	2.97094473e+12
2.73000000e+02	2.98613929e+12
2.74000000e+02	3.00132044e+12
2.75000000e+02	3.01648894e+12
2.76000000e+02	3.03164554e+12
2.77000000e+02	3.04679106e+12
2.78000000e+02	3.06192630e+12
2.79000000e+02	3.07705209e+12
2.80000000e+02	3.09216929e+12
2.81000000e+02	3.10727878e+12
2.82000000e+02	3.12238143e+12
2.83000000e+02	3.13747816e+12
2.84000000e+02	3.15256988e+12
2.85000000e+02	3.16765753e+12
2.86000000e+02	3.18274206e+12
2.87000000e+02	3.19782442e+12
2.88000000e+02	3.21290558e+12
2.89000000e+02	3.22798652e+12
2.90000000e+02	3.24306822e+12
2.91000000e+02	3.25815169e+12
2.92000000e+02	3.27323791e+12
2.93000000e+02	3.28832788e+12
2.94000000e+02	3.30342262e+12
2.95000000e+02	3.31852312e+12
2.96000000e+02	3.33363040e+12
2.97000000e+02	3.34874544e+12
2.98000000e+02	3.36386927e+12
2.99000000e+02	3.37900286e+12
3.00000000e+02	3.39414722e+12
3.01000000e+02	3.40930333e+12
3.02000000e+02	3.42447215e+12
3.03000000e+02	3.43965466e+12
3.04000000e+02	3.45485180e+12
3.05000000e+02	3.47006452e+12
3.06000000e+02	3.48529373e+12
3.07000000e+02	3.50054036e+12
3.08000000e+02	3.51580527e+12
3.09000000e+02	3.53108935e+12
3.10000000e+02	3.54639345e+12
3.11000000e+02	3.56171838e+12
3.12000000e+02	3.57706495e+12
3.13000000e+02	3.59243395e+12
3.14000000e+02	3.60782610e+12
3.15000000e+02	3.62324214e+12
3.16000000e+02	3.63868275e+12
3.17000000e+02	3.65414859e+12
3.18000000e+02	3.66964028e+12
3.19000000e+02	3.68515841e+12
3.20000000e+02	3.70070353e+12
3.21000000e+02	3.71627615e+12
3.22000000e+02	3.73187674e+12
3.23000000e+02	3.74750574e+12
3.24000000e+02	3.76316352e+12
3.25000000e+02	3.77885043e+12
3.26000000e+02	3.79456677e+12
3.27000000e+02	3.81031278e+12
3.28000000e+02	3.82608866e+12
3.29000000e+02	3.84189456e+12
3.30000000e+02	3.85773057e+12
3.31000000e+02	3.87359673e+12
3.32000000e+02	3.88949302e+12
3.33000000e+02	3.90541938e+12
3.34000000e+02	3.92137567e+12
3.35000000e+02	3.93736169e+12
3.36000000e+02	3.95337720e+12
3.37000000e+02	3.96942187e+12
3.38000000e+02	3.98549533e+12
3.39000000e+02	4.00159713e+12
3.40000000e+02	4.01772674e+12
3.41000000e+02	4.03388359e+12
3.42000000e+02	4.05006702e+12
3.43000000e+02	4.06627629e+12
3.44000000e+02	4.08251061e+12
3.45000000e+02	4.09876910e+12
3.46000000e+02	4.11505081e+12
3.47000000e+02	4.13135470e+12
3.48000000e+02	4.14767965e+12
3.49000000e+02	4.16402448e+12
3.50000000e+02	4.18038791e+12
3.51000000e+02	4.19676858e+12
3.52000000e+02	4.21316504e+12
3.53000000e+02	4.22957576e+12
3.54000000e+02	4.24599912e+12
3.55000000e+02	4.26243340e+12
3.56000000e+02	4.27887682e+12
3.57000000e+02	4.29532746e+12
3.58000000e+02	4.31178334e+12
3.59000000e+02	4.32824237e+12
3.60000000e+02	4.34470238e+12
3.61000000e+02	4.36116107e+12
3.62000000e+02	4.37761608e+12
3.63000000e+02	4.39406492e+12
3.64000000e+02	4.41050499e+12
3.65000000e+02	4.42693362e+12
3.66000000e+02	4.44334801e+12
3.67000000e+02	4.45974526e+12
3.68000000e+02	4.47612235e+12
3.69000000e+02	4.49247617e+12
3.70000000e+02	4.50880349e+12
3.71000000e+02	4.52510097e+12
3.72000000e+02	4.54136515e+12
3.73000000e+02	4.55759246e+12
3.74000000e+02	4.57377922e+12
3.75000000e+02	4.58992163e+12
3.76000000e+02	4.60601575e+12
3.77000000e+02	4.62205757e+12
3.78000000e+02	4.63804291e+12
3.79000000e+02	4.65396749e+12
3.80000000e+02	4.66982692e+12
3.81000000e+02	4.68561667e+12
3.82000000e+02	4.70133209e+12
3.83000000e+02	4.71696841e+12
3.84000000e+02	4.73252073e+12
3.85000000e+02	4.74798403e+12
3.86000000e+02	4.76335316e+12
3.87000000e+02	4.77862284e+12
3.88000000e+02	4.79378766e+12
3.89000000e+02	4.80884211e+12
3.90000000e+02	4.82378051e+12
3.91000000e+02	4.83859710e+12
3.92000000e+02	4.85328594e+12
3.93000000e+02	4.86784101e+12
3.94000000e+02	4.88225614e+12
3.95000000e+02	4.89652504e+12
3.96000000e+02	4.91064128e+12
3.97000000e+02	4.92459833e+12
3.98000000e+02	4.93838951e+12
3.99000000e+02	4.95200804e+12
4.00000000e+02	4.96544699e+12
4.01000000e+02	4.97869934e+12
4.02000000e+02	4.99175793e+12
4.03000000e+02	5.00461549e+12
4.04000000e+02	5.01726463e+12
4.05000000e+02	5.02969785e+12
4.06000000e+02	5.04190753e+12
4.07000000e+02	5.05388596e+12
4.08000000e+02	5.06562529e+12
4.09000000e+02	5.07711760e+12
4.10000000e+02	5.08835485e+12
4.11000000e+02	5.09932891e+12
4.12000000e+02	5.11003154e+12
4.13000000e+02	5.12045444e+12
4.14000000e+02	5.13058920e+12
4.15000000e+02	5.14042732e+12
4.16000000e+02	5.14996024e+12
4.17000000e+02	5.15917933e+12
4.18000000e+02	5.16807587e+12
4.19000000e+02	5.17664108e+12
4.20000000e+02	5.18486615e+12
4.21000000e+02	5.19274218e+12
4.22000000e+02	5.20026024e+12
4.23000000e+02	5.20741136e+12
4.24000000e+02	5.21418653e+12
4.25000000e+02	5.22057672e+12
4.26000000e+02	5.22657287e+12
4.27000000e+02	5.23216590e+12
4.28000000e+02	5.23734675e+12
4.29000000e+02	5.24210632e+12
4.30000000e+02	5.24643556e+12
4.31000000e+02	5.25032540e+12
4.32000000e+02	5.25376682e+12
4.33000000e+02	5.25675083e+12
4.34000000e+02	5.25926846e+12
4.35000000e+02	5.26131082e+12
4.36000000e+02	5.26286906e+12
4.37000000e+02	5.26393440e+12
4.38000000e+02	5.26449815e+12
4.39000000e+02	5.26455171e+12
4.40000000e+02	5.26408655e+12
4.41000000e+02	5.26309429e+12
4.42000000e+02	5.26156665e+12
4.43000000e+02	5.25949546e+12
4.44000000e+02	5.25687272e+12
4.45000000e+02	5.25369057e+12
4.46000000e+02	5.24994132e+12
4.47000000e+02	5.24561743e+12
4.48000000e+02	5.24071157e+12
4.49000000e+02	5.23521661e+12
4.50000000e+02	5.22912559e+12
4.51000000e+02	5.22243182e+12
4.52000000e+02	5.21512882e+12
4.53000000e+02	5.20721034e+12
4.54000000e+02	5.19867040e+12
4.55000000e+02	5.18950331e+12
4.56000000e+02	5.17970363e+12
4.57000000e+02	5.16926624e+12
4.58000000e+02	5.15818630e+12
4.59000000e+02	5.14645932e+12
4.60000000e+02	5.13408113e+12
4.61000000e+02	5.12104791e+12
4.62000000e+02	5.10735621e+12
4.63000000e+02	5.09300294e+12
4.64000000e+02	5.07798541e+12
4.65000000e+02	5.06230134e+12
4.66000000e+02	5.04594886e+12
4.67000000e+02	5.02892652e+12
4.68000000e+02	5.01123335e+12
4.69000000e+02	4.99286880e+12
4.70000000e+02	4.97383284e+12
4.71000000e+02	4.95412590e+12
4.72000000e+02	4.93374893e+12
4.73000000e+02	4.91270340e+12
4.74000000e+02	4.89099133e+12
4.75000000e+02	4.86861527e+12
4.76000000e+02	4.84557836e+12
4.77000000e+02	4.82188431e+12
4.78000000e+02	4.79753744e+12
4.79000000e+02	4.77254267e+12
4.80000000e+02	4.74690558e+12
4.81000000e+02	4.72063235e+12
4.82000000e+02	4.69372986e+12
4.83000000e+02	4.66620563e+12
4.84000000e+02	4.63806790e+12
4.85000000e+02	4.60932557e+12
4.86000000e+02	4.57998828e+12
4.87000000e+02	4.55006639e+12
4.88000000e+02	4.51957096e+12
4.89000000e+02	4.48851383e+12
4.90000000e+02	4.45690757e+12
4.91000000e+02	4.42476550e+12
4.92000000e+02	4.39210169e+12
4.93000000e+02	4.35893100e+12
4.94000000e+02	4.32526902e+12
4.95000000e+02	4.29113210e+12
4.96000000e+02	4.25653735e+12
4.97000000e+02	4.22150263e+12
4.98000000e+02	4.18604652e+12
4.99000000e+02	4.15018832e+12
5.00000000e+02	4.11394804e+12
5.01000000e+02	4.07734637e+12
5.02000000e+02	4.04040465e+12
5.03000000e+02	4.00314487e+12
5.04000000e+02	3.96558960e+12
5.05000000e+02	3.92776197e+12
5.06000000e+02	3.88968565e+12
5.07000000e+02	3.85138479e+12
5.08000000e+02	3.81288394e+12
5.09000000e+02	3.77420806e+12
5.10000000e+02	3.73538243e+12
5.11000000e+02	3.69643259e+12
5.12000000e+02	3.65738429e+12
5.13000000e+02	3.61826342e+12
5.14000000e+02	3.57909593e+12
5.15000000e+02	3.53990778e+12
5.16000000e+02	3.50072487e+12
5.17000000e+02	3.46157293e+12
5.18000000e+02	3.42247749e+12
5.19000000e+02	3.38346380e+12
5.20000000e+02	3.34455670e+12
5.21000000e+02	3.30578063e+12
5.22000000e+02	3.26715950e+12
5.23000000e+02	3.22871663e+12
5.24000000e+02	3.19047470e+12
5.25000000e+02	3.15245568e+12
5.26000000e+02	3.11468074e+12
5.27000000e+02	3.07717024e+12
5.28000000e+02	3.03994363e+12
5.29000000e+02	3.00301945e+12
5.30000000e+02	2.96641526e+12
5.31000000e+02	2.93014760e+12
5.32000000e+02	2.89423198e+12
5.33000000e+02	2.85868285e+12
5.34000000e+02	2.82351356e+12
5.35000000e+02	2.78873638e+12
5.36000000e+02	2.75436249e+12
5.37000000e+02	2.72040195e+12
5.38000000e+02	2.68686375e+12
5.39000000e+02	2.65375577e+12
5.40000000e+02	2.62108486e+12
5.41000000e+02	2.58885679e+12
5.42000000e+02	2.55707635e+12
5.43000000e+02	2.52574730e+12
5.44000000e+02	2.49487249e+12
5.45000000e+02	2.46445382e+12
5.46000000e+02	2.43449232e+12
5.47000000e+02	2.40498817e+12
5.48000000e+02	2.37594077e+12
5.49000000e+02	2.34734877e+12
5.50000000e+02	2.31921009e+12
5.51000000e+02	2.29152201e+12
5.52000000e+02	2.26428118e+12
5.53000000e+02	2.23748368e+12
5.54000000e+02	2.21112507e+12
5.55000000e+02	2.18520041e+12
5.56000000e+02	2.15970434e+12
5.57000000e+02	2.13463109e+12
5.58000000e+02	2.10997453e+12
5.59000000e+02	2.08572820e+12
5.60000000e+02	2.06188537e+12
5.61000000e+02	2.03843907e+12
5.62000000e+02	2.01538207e+12
5.63000000e+02	1.99270700e+12
5.64000000e+02	1.97040630e+12
5.65000000e+02	1.94847230e+12
5.66000000e+02	1.92689723e+12
5.67000000e+02	1.90567322e+12
5.68000000e+02	1.88479235e+12
5.69000000e+02	1.86424665e+12
5.70000000e+02	1.84402816e+12
5.71000000e+02	1.82412887e+12
5.72000000e+02	1.80454082e+12
5.73000000e+02	1.78525606e+12
5.74000000e+02	1.76626665e+12
5.75000000e+02	1.74756473e+12
5.76000000e+02	1.72914248e+12
5.77000000e+02	1.71099214e+12
5.78000000e+02	1.69310602e+12
5.79000000e+02	1.67547651e+12
5.80000000e+02	1.65809609e+12
5.81000000e+02	1.64095730e+12
5.82000000e+02	1.62405280e+12
5.83000000e+02	1.60737533e+12
5.84000000e+02	1.59091770e+12
5.85000000e+02	1.57467284e+12
5.86000000e+02	1.55863378e+12
5.87000000e+02	1.54279362e+12
5.88000000e+02	1.52714559e+12
5.89000000e+02	1.51168298e+12
5.90000000e+02	1.49639920e+12
5.91000000e+02	1.48128776e+12
5.92000000e+02	1.46634224e+12
5.93000000e+02	1.45155633e+12
5.94000000e+02	1.43692382e+12
5.95000000e+02	1.42243856e+12
5.96000000e+02	1.40809452e+12
5.97000000e+02	1.39388572e+12
5.98000000e+02	1.37980629e+12
5.99000000e+02	1.36585045e+12
6.00000000e+02	1.35201248e+12
6.01000000e+02	1.33828676e+12
6.02000000e+02	1.32466773e+12
6.03000000e+02	1.31114991e+12
6.04000000e+02	1.29772791e+12
6.05000000e+02	1.28439641e+12
6.06000000e+02	1.27115016e+12
6.07000000e+02	1.25798400e+12
6.08000000e+02	1.24489281e+12
6.09000000e+02	1.23187157e+12
6.10000000e+02	1.21891534e+12
6.11000000e+02	1.20601924e+12
6.12000000e+02	1.19317846e+12
6.13000000e+02	1.18038828e+12
6.14000000e+02	1.16764406e+12
6.15000000e+02	1.15494122e+12
6.16000000e+02	1.14227528e+12
6.17000000e+02	1.12964185e+12
6.18000000e+02	1.11703659e+12
6.19000000e+02	1.10445528e+12
6.20000000e+02	1.09189376e+12
6.21000000e+02	1.07934800e+12
6.22000000e+02	1.06681403e+12
6.23000000e+02	1.05428803e+12
6.24000000e+02	1.04176620e+12
6.25000000e+02	1.02924496e+12
6.26000000e+02	1.01672068e+12
6.27000000e+02	1.00419006e+12
6.28000000e+02	9.91649764e+11
6.29000000e+02	9.79096323e+11
6.30000000e+02	9.66527710e+11
6.31000000e+02	9.53939786e+11
6.32000000e+02	9.41329267e+11
6.33000000e+02	9.28695042e+11
6.34000000e+02	9.16033141e+11
6.35000000e+02	9.03342641e+11
6.36000000e+02	8.90620033e+11
6.37000000e+02	8.77864262e+11
6.38000000e+02	8.65072711e+11
6.39000000e+02	8.52243488e+11
6.40000000e+02	8.39375752e+11
6.41000000e+02	8.26466556e+11
6.42000000e+02	8.13516144e+11
6.43000000e+02	8.00522154e+11
6.44000000e+02	7.87483785e+11
6.45000000e+02	7.74400740e+11
6.46000000e+02	7.61270989e+11
6.47000000e+02	7.48095335e+11
6.48000000e+02	7.34872393e+11
6.49000000e+02	7.21601817e+11
6.50000000e+02	7.08284206e+11
6.51000000e+02	6.94918282e+11
6.52000000e+02	6.81505268e+11
6.53000000e+02	6.68044782e+11
6.54000000e+02	6.54536852e+11
6.55000000e+02	6.40982834e+11
6.56000000e+02	6.27382086e+11
6.57000000e+02	6.13736182e+11
6.58000000e+02	6.00045537e+11
6.59000000e+02	5.86310556e+11
