# Profil de Te au temps 1.100000000000014e-11 
# simu : /Volumes/MERCURE/JOBS/Zeq2_tanh_50mic_1p5e20_B0_20ps/GNU/Te@y-c.set
# col 0 : abscisse (um)
# col 1 : Te (keV)
5.00000000e-01	9.99126397e-01
1.50000000e+00	9.99125730e-01
2.50000000e+00	9.99124408e-01
3.50000000e+00	9.99122423e-01
4.50000000e+00	9.99119773e-01
5.50000000e+00	9.99116459e-01
6.50000000e+00	9.99112479e-01
7.50000000e+00	9.99107833e-01
8.50000000e+00	9.99102518e-01
9.50000000e+00	9.99096532e-01
1.05000000e+01	9.99089875e-01
1.15000000e+01	9.99082543e-01
1.25000000e+01	9.99074533e-01
1.35000000e+01	9.99065844e-01
1.45000000e+01	9.99056472e-01
1.55000000e+01	9.99046414e-01
1.65000000e+01	9.99035666e-01
1.75000000e+01	9.99024226e-01
1.85000000e+01	9.99012088e-01
1.95000000e+01	9.98999249e-01
2.05000000e+01	9.98985704e-01
2.15000000e+01	9.98971449e-01
2.25000000e+01	9.98956480e-01
2.35000000e+01	9.98940791e-01
2.45000000e+01	9.98924376e-01
2.55000000e+01	9.98907232e-01
2.65000000e+01	9.98889351e-01
2.75000000e+01	9.98870729e-01
2.85000000e+01	9.98851359e-01
2.95000000e+01	9.98831235e-01
3.05000000e+01	9.98810351e-01
3.15000000e+01	9.98788700e-01
3.25000000e+01	9.98766275e-01
3.35000000e+01	9.98743069e-01
3.45000000e+01	9.98719075e-01
3.55000000e+01	9.98694286e-01
3.65000000e+01	9.98668694e-01
3.75000000e+01	9.98642291e-01
3.85000000e+01	9.98615070e-01
3.95000000e+01	9.98587022e-01
4.05000000e+01	9.98558139e-01
4.15000000e+01	9.98528413e-01
4.25000000e+01	9.98497835e-01
4.35000000e+01	9.98466396e-01
4.45000000e+01	9.98434087e-01
4.55000000e+01	9.98400900e-01
4.65000000e+01	9.98366825e-01
4.75000000e+01	9.98331853e-01
4.85000000e+01	9.98295974e-01
4.95000000e+01	9.98259178e-01
5.05000000e+01	9.98221455e-01
5.15000000e+01	9.98182797e-01
5.25000000e+01	9.98143192e-01
5.35000000e+01	9.98102630e-01
5.45000000e+01	9.98061102e-01
5.55000000e+01	9.98018596e-01
5.65000000e+01	9.97975102e-01
5.75000000e+01	9.97930610e-01
5.85000000e+01	9.97885108e-01
5.95000000e+01	9.97838585e-01
6.05000000e+01	9.97791032e-01
6.15000000e+01	9.97742435e-01
6.25000000e+01	9.97692786e-01
6.35000000e+01	9.97642071e-01
6.45000000e+01	9.97590280e-01
6.55000000e+01	9.97537402e-01
6.65000000e+01	9.97483424e-01
6.75000000e+01	9.97428336e-01
6.85000000e+01	9.97372125e-01
6.95000000e+01	9.97314780e-01
7.05000000e+01	9.97256289e-01
7.15000000e+01	9.97196640e-01
7.25000000e+01	9.97135822e-01
7.35000000e+01	9.97073822e-01
7.45000000e+01	9.97010629e-01
7.55000000e+01	9.96946231e-01
7.65000000e+01	9.96880615e-01
7.75000000e+01	9.96813770e-01
7.85000000e+01	9.96745683e-01
7.95000000e+01	9.96676343e-01
8.05000000e+01	9.96605737e-01
8.15000000e+01	9.96533853e-01
8.25000000e+01	9.96460680e-01
8.35000000e+01	9.96386205e-01
8.45000000e+01	9.96310416e-01
8.55000000e+01	9.96233302e-01
8.65000000e+01	9.96154849e-01
8.75000000e+01	9.96075046e-01
8.85000000e+01	9.95993881e-01
8.95000000e+01	9.95911342e-01
9.05000000e+01	9.95827417e-01
9.15000000e+01	9.95742094e-01
9.25000000e+01	9.95655361e-01
9.35000000e+01	9.95567206e-01
9.45000000e+01	9.95477619e-01
9.55000000e+01	9.95386586e-01
9.65000000e+01	9.95294096e-01
9.75000000e+01	9.95200139e-01
9.85000000e+01	9.95104701e-01
9.95000000e+01	9.95007772e-01
1.00500000e+02	9.94909341e-01
1.01500000e+02	9.94809396e-01
1.02500000e+02	9.94707925e-01
1.03500000e+02	9.94604919e-01
1.04500000e+02	9.94500365e-01
1.05500000e+02	9.94394253e-01
1.06500000e+02	9.94286572e-01
1.07500000e+02	9.94177312e-01
1.08500000e+02	9.94066461e-01
1.09500000e+02	9.93954009e-01
1.10500000e+02	9.93839946e-01
1.11500000e+02	9.93724262e-01
1.12500000e+02	9.93606946e-01
1.13500000e+02	9.93487988e-01
1.14500000e+02	9.93367378e-01
1.15500000e+02	9.93245107e-01
1.16500000e+02	9.93121165e-01
1.17500000e+02	9.92995542e-01
1.18500000e+02	9.92868229e-01
1.19500000e+02	9.92739216e-01
1.20500000e+02	9.92608495e-01
1.21500000e+02	9.92476056e-01
1.22500000e+02	9.92341891e-01
1.23500000e+02	9.92205990e-01
1.24500000e+02	9.92068346e-01
1.25500000e+02	9.91928950e-01
1.26500000e+02	9.91787792e-01
1.27500000e+02	9.91644867e-01
1.28500000e+02	9.91500164e-01
1.29500000e+02	9.91353677e-01
1.30500000e+02	9.91205397e-01
1.31500000e+02	9.91055318e-01
1.32500000e+02	9.90903432e-01
1.33500000e+02	9.90749730e-01
1.34500000e+02	9.90594207e-01
1.35500000e+02	9.90436856e-01
1.36500000e+02	9.90277669e-01
1.37500000e+02	9.90116640e-01
1.38500000e+02	9.89953762e-01
1.39500000e+02	9.89789029e-01
1.40500000e+02	9.89622434e-01
1.41500000e+02	9.89453972e-01
1.42500000e+02	9.89283637e-01
1.43500000e+02	9.89111423e-01
1.44500000e+02	9.88937323e-01
1.45500000e+02	9.88761333e-01
1.46500000e+02	9.88583447e-01
1.47500000e+02	9.88403660e-01
1.48500000e+02	9.88221966e-01
1.49500000e+02	9.88038361e-01
1.50500000e+02	9.87852840e-01
1.51500000e+02	9.87665398e-01
1.52500000e+02	9.87476030e-01
1.53500000e+02	9.87284731e-01
1.54500000e+02	9.87091498e-01
1.55500000e+02	9.86896325e-01
1.56500000e+02	9.86699209e-01
1.57500000e+02	9.86500146e-01
1.58500000e+02	9.86299131e-01
1.59500000e+02	9.86096160e-01
1.60500000e+02	9.85891230e-01
1.61500000e+02	9.85684336e-01
1.62500000e+02	9.85475475e-01
1.63500000e+02	9.85264644e-01
1.64500000e+02	9.85051838e-01
1.65500000e+02	9.84837054e-01
1.66500000e+02	9.84620288e-01
1.67500000e+02	9.84401538e-01
1.68500000e+02	9.84180799e-01
1.69500000e+02	9.83958069e-01
1.70500000e+02	9.83733343e-01
1.71500000e+02	9.83506618e-01
1.72500000e+02	9.83277892e-01
1.73500000e+02	9.83047160e-01
1.74500000e+02	9.82814419e-01
1.75500000e+02	9.82579667e-01
1.76500000e+02	9.82342898e-01
1.77500000e+02	9.82104111e-01
1.78500000e+02	9.81863301e-01
1.79500000e+02	9.81620465e-01
1.80500000e+02	9.81375599e-01
1.81500000e+02	9.81128700e-01
1.82500000e+02	9.80879764e-01
1.83500000e+02	9.80628787e-01
1.84500000e+02	9.80375765e-01
1.85500000e+02	9.80120694e-01
1.86500000e+02	9.79863570e-01
1.87500000e+02	9.79604388e-01
1.88500000e+02	9.79343145e-01
1.89500000e+02	9.79079835e-01
1.90500000e+02	9.78814454e-01
1.91500000e+02	9.78546997e-01
1.92500000e+02	9.78277458e-01
1.93500000e+02	9.78005833e-01
1.94500000e+02	9.77732117e-01
1.95500000e+02	9.77456302e-01
1.96500000e+02	9.77178384e-01
1.97500000e+02	9.76898356e-01
1.98500000e+02	9.76616212e-01
1.99500000e+02	9.76331945e-01
2.00500000e+02	9.76045548e-01
2.01500000e+02	9.75757014e-01
2.02500000e+02	9.75466335e-01
2.03500000e+02	9.75173503e-01
2.04500000e+02	9.74878511e-01
2.05500000e+02	9.74581349e-01
2.06500000e+02	9.74282008e-01
2.07500000e+02	9.73980480e-01
2.08500000e+02	9.73676754e-01
2.09500000e+02	9.73370821e-01
2.10500000e+02	9.73062670e-01
2.11500000e+02	9.72752290e-01
2.12500000e+02	9.72439670e-01
2.13500000e+02	9.72124797e-01
2.14500000e+02	9.71807660e-01
2.15500000e+02	9.71488245e-01
2.16500000e+02	9.71166540e-01
2.17500000e+02	9.70842530e-01
2.18500000e+02	9.70516202e-01
2.19500000e+02	9.70187539e-01
2.20500000e+02	9.69856527e-01
2.21500000e+02	9.69523150e-01
2.22500000e+02	9.69187390e-01
2.23500000e+02	9.68849231e-01
2.24500000e+02	9.68508655e-01
2.25500000e+02	9.68165642e-01
2.26500000e+02	9.67820175e-01
2.27500000e+02	9.67472232e-01
2.28500000e+02	9.67121793e-01
2.29500000e+02	9.66768837e-01
2.30500000e+02	9.66413341e-01
2.31500000e+02	9.66055284e-01
2.32500000e+02	9.65694640e-01
2.33500000e+02	9.65331386e-01
2.34500000e+02	9.64965497e-01
2.35500000e+02	9.64596946e-01
2.36500000e+02	9.64225707e-01
2.37500000e+02	9.63851751e-01
2.38500000e+02	9.63475051e-01
2.39500000e+02	9.63095576e-01
2.40500000e+02	9.62713296e-01
2.41500000e+02	9.62328180e-01
2.42500000e+02	9.61940196e-01
2.43500000e+02	9.61549310e-01
2.44500000e+02	9.61155488e-01
2.45500000e+02	9.60758694e-01
2.46500000e+02	9.60358892e-01
2.47500000e+02	9.59956046e-01
2.48500000e+02	9.59550116e-01
2.49500000e+02	9.59141063e-01
2.50500000e+02	9.58728847e-01
2.51500000e+02	9.58313425e-01
2.52500000e+02	9.57894755e-01
2.53500000e+02	9.57472793e-01
2.54500000e+02	9.57047494e-01
2.55500000e+02	9.56618811e-01
2.56500000e+02	9.56186697e-01
2.57500000e+02	9.55751103e-01
2.58500000e+02	9.55311979e-01
2.59500000e+02	9.54869273e-01
2.60500000e+02	9.54422933e-01
2.61500000e+02	9.53972906e-01
2.62500000e+02	9.53519135e-01
2.63500000e+02	9.53061564e-01
2.64500000e+02	9.52600136e-01
2.65500000e+02	9.52134791e-01
2.66500000e+02	9.51665468e-01
2.67500000e+02	9.51192105e-01
2.68500000e+02	9.50714639e-01
2.69500000e+02	9.50233004e-01
2.70500000e+02	9.49747135e-01
2.71500000e+02	9.49256962e-01
2.72500000e+02	9.48762417e-01
2.73500000e+02	9.48263429e-01
2.74500000e+02	9.47759925e-01
2.75500000e+02	9.47251831e-01
2.76500000e+02	9.46739071e-01
2.77500000e+02	9.46221568e-01
2.78500000e+02	9.45699244e-01
2.79500000e+02	9.45172016e-01
2.80500000e+02	9.44639805e-01
2.81500000e+02	9.44102524e-01
2.82500000e+02	9.43560090e-01
2.83500000e+02	9.43012415e-01
2.84500000e+02	9.42459409e-01
2.85500000e+02	9.41900982e-01
2.86500000e+02	9.41337043e-01
2.87500000e+02	9.40767495e-01
2.88500000e+02	9.40192244e-01
2.89500000e+02	9.39611192e-01
2.90500000e+02	9.39024238e-01
2.91500000e+02	9.38431282e-01
2.92500000e+02	9.37832220e-01
2.93500000e+02	9.37226947e-01
2.94500000e+02	9.36615356e-01
2.95500000e+02	9.35997338e-01
2.96500000e+02	9.35372782e-01
2.97500000e+02	9.34741575e-01
2.98500000e+02	9.34103602e-01
2.99500000e+02	9.33458746e-01
3.00500000e+02	9.32806889e-01
3.01500000e+02	9.32147910e-01
3.02500000e+02	9.31481685e-01
3.03500000e+02	9.30808091e-01
3.04500000e+02	9.30127000e-01
3.05500000e+02	9.29438283e-01
3.06500000e+02	9.28741808e-01
3.07500000e+02	9.28037444e-01
3.08500000e+02	9.27325055e-01
3.09500000e+02	9.26604502e-01
3.10500000e+02	9.25875646e-01
3.11500000e+02	9.25138347e-01
3.12500000e+02	9.24392459e-01
3.13500000e+02	9.23637836e-01
3.14500000e+02	9.22874330e-01
3.15500000e+02	9.22101790e-01
3.16500000e+02	9.21320064e-01
3.17500000e+02	9.20528996e-01
3.18500000e+02	9.19728429e-01
3.19500000e+02	9.18918202e-01
3.20500000e+02	9.18098155e-01
3.21500000e+02	9.17268122e-01
3.22500000e+02	9.16427936e-01
3.23500000e+02	9.15577429e-01
3.24500000e+02	9.14716428e-01
3.25500000e+02	9.13844761e-01
3.26500000e+02	9.12962250e-01
3.27500000e+02	9.12068718e-01
3.28500000e+02	9.11163982e-01
3.29500000e+02	9.10247859e-01
3.30500000e+02	9.09320162e-01
3.31500000e+02	9.08380705e-01
3.32500000e+02	9.07429294e-01
3.33500000e+02	9.06465738e-01
3.34500000e+02	9.05489839e-01
3.35500000e+02	9.04501399e-01
3.36500000e+02	9.03500217e-01
3.37500000e+02	9.02486090e-01
3.38500000e+02	9.01458810e-01
3.39500000e+02	9.00418171e-01
3.40500000e+02	8.99363959e-01
3.41500000e+02	8.98295962e-01
3.42500000e+02	8.97213963e-01
3.43500000e+02	8.96117743e-01
3.44500000e+02	8.95007081e-01
3.45500000e+02	8.93881753e-01
3.46500000e+02	8.92741531e-01
3.47500000e+02	8.91586187e-01
3.48500000e+02	8.90415490e-01
3.49500000e+02	8.89229205e-01
3.50500000e+02	8.88027095e-01
3.51500000e+02	8.86808921e-01
3.52500000e+02	8.85574442e-01
3.53500000e+02	8.84323413e-01
3.54500000e+02	8.83055588e-01
3.55500000e+02	8.81770717e-01
3.56500000e+02	8.80468549e-01
3.57500000e+02	8.79148831e-01
3.58500000e+02	8.77811306e-01
3.59500000e+02	8.76455715e-01
3.60500000e+02	8.75081798e-01
3.61500000e+02	8.73689292e-01
3.62500000e+02	8.72277932e-01
3.63500000e+02	8.70847450e-01
3.64500000e+02	8.69397577e-01
3.65500000e+02	8.67928042e-01
3.66500000e+02	8.66438570e-01
3.67500000e+02	8.64928888e-01
3.68500000e+02	8.63398716e-01
3.69500000e+02	8.61847777e-01
3.70500000e+02	8.60275790e-01
3.71500000e+02	8.58682472e-01
3.72500000e+02	8.57067540e-01
3.73500000e+02	8.55430708e-01
3.74500000e+02	8.53771690e-01
3.75500000e+02	8.52090198e-01
3.76500000e+02	8.50385942e-01
3.77500000e+02	8.48658633e-01
3.78500000e+02	8.46907980e-01
3.79500000e+02	8.45133690e-01
3.80500000e+02	8.43335472e-01
3.81500000e+02	8.41513032e-01
3.82500000e+02	8.39666077e-01
3.83500000e+02	8.37794313e-01
3.84500000e+02	8.35897447e-01
3.85500000e+02	8.33975184e-01
3.86500000e+02	8.32027232e-01
3.87500000e+02	8.30053296e-01
3.88500000e+02	8.28053085e-01
3.89500000e+02	8.26026306e-01
3.90500000e+02	8.23972669e-01
3.91500000e+02	8.21891884e-01
3.92500000e+02	8.19783662e-01
3.93500000e+02	8.17647716e-01
3.94500000e+02	8.15483762e-01
3.95500000e+02	8.13291514e-01
3.96500000e+02	8.11070694e-01
3.97500000e+02	8.08821021e-01
3.98500000e+02	8.06542219e-01
3.99500000e+02	8.04234017e-01
4.00500000e+02	8.01896142e-01
4.01500000e+02	7.99528329e-01
4.02500000e+02	7.97130315e-01
4.03500000e+02	7.94701840e-01
4.04500000e+02	7.92242650e-01
4.05500000e+02	7.89752494e-01
4.06500000e+02	7.87231126e-01
4.07500000e+02	7.84678306e-01
4.08500000e+02	7.82093798e-01
4.09500000e+02	7.79477372e-01
4.10500000e+02	7.76828805e-01
4.11500000e+02	7.74147879e-01
4.12500000e+02	7.71434382e-01
4.13500000e+02	7.68688111e-01
4.14500000e+02	7.65908868e-01
4.15500000e+02	7.63096464e-01
4.16500000e+02	7.60250717e-01
4.17500000e+02	7.57371452e-01
4.18500000e+02	7.54458505e-01
4.19500000e+02	7.51511719e-01
4.20500000e+02	7.48530946e-01
4.21500000e+02	7.45516049e-01
4.22500000e+02	7.42466899e-01
4.23500000e+02	7.39383377e-01
4.24500000e+02	7.36265376e-01
4.25500000e+02	7.33112799e-01
4.26500000e+02	7.29925559e-01
4.27500000e+02	7.26703583e-01
4.28500000e+02	7.23446806e-01
4.29500000e+02	7.20155178e-01
4.30500000e+02	7.16828661e-01
4.31500000e+02	7.13467228e-01
4.32500000e+02	7.10070868e-01
4.33500000e+02	7.06639580e-01
4.34500000e+02	7.03173379e-01
4.35500000e+02	6.99672293e-01
4.36500000e+02	6.96136366e-01
4.37500000e+02	6.92565653e-01
4.38500000e+02	6.88960229e-01
4.39500000e+02	6.85320180e-01
4.40500000e+02	6.81645610e-01
4.41500000e+02	6.77936638e-01
4.42500000e+02	6.74193401e-01
4.43500000e+02	6.70416049e-01
4.44500000e+02	6.66604753e-01
4.45500000e+02	6.62759700e-01
4.46500000e+02	6.58881093e-01
4.47500000e+02	6.54969155e-01
4.48500000e+02	6.51024127e-01
4.49500000e+02	6.47046268e-01
4.50500000e+02	6.43035857e-01
4.51500000e+02	6.38993192e-01
4.52500000e+02	6.34918590e-01
4.53500000e+02	6.30812391e-01
4.54500000e+02	6.26674953e-01
4.55500000e+02	6.22506656e-01
4.56500000e+02	6.18307902e-01
4.57500000e+02	6.14079115e-01
4.58500000e+02	6.09820740e-01
4.59500000e+02	6.05533248e-01
4.60500000e+02	6.01217130e-01
4.61500000e+02	5.96872905e-01
4.62500000e+02	5.92501113e-01
4.63500000e+02	5.88102321e-01
4.64500000e+02	5.83677121e-01
4.65500000e+02	5.79226133e-01
4.66500000e+02	5.74750003e-01
4.67500000e+02	5.70249403e-01
4.68500000e+02	5.65725037e-01
4.69500000e+02	5.61177636e-01
4.70500000e+02	5.56607959e-01
4.71500000e+02	5.52016800e-01
4.72500000e+02	5.47404980e-01
4.73500000e+02	5.42773354e-01
4.74500000e+02	5.38122811e-01
4.75500000e+02	5.33454271e-01
4.76500000e+02	5.28768689e-01
4.77500000e+02	5.24067056e-01
4.78500000e+02	5.19350398e-01
4.79500000e+02	5.14619778e-01
4.80500000e+02	5.09876295e-01
4.81500000e+02	5.05121087e-01
4.82500000e+02	5.00355331e-01
4.83500000e+02	4.95580240e-01
4.84500000e+02	4.90797069e-01
4.85500000e+02	4.86007112e-01
4.86500000e+02	4.81211703e-01
4.87500000e+02	4.76412216e-01
4.88500000e+02	4.71610066e-01
4.89500000e+02	4.66806708e-01
4.90500000e+02	4.62003636e-01
4.91500000e+02	4.57202385e-01
4.92500000e+02	4.52404528e-01
4.93500000e+02	4.47611679e-01
4.94500000e+02	4.42825486e-01
4.95500000e+02	4.38047635e-01
4.96500000e+02	4.33279846e-01
4.97500000e+02	4.28523875e-01
4.98500000e+02	4.23781507e-01
4.99500000e+02	4.19054555e-01
5.00500000e+02	4.14344861e-01
5.01500000e+02	4.09654292e-01
5.02500000e+02	4.04984732e-01
5.03500000e+02	4.00338086e-01
5.04500000e+02	3.95716273e-01
5.05500000e+02	3.91121221e-01
5.06500000e+02	3.86554863e-01
5.07500000e+02	3.82019136e-01
5.08500000e+02	3.77515973e-01
5.09500000e+02	3.73047298e-01
5.10500000e+02	3.68615023e-01
5.11500000e+02	3.64221042e-01
5.12500000e+02	3.59867222e-01
5.13500000e+02	3.55555404e-01
5.14500000e+02	3.51287391e-01
5.15500000e+02	3.47064947e-01
5.16500000e+02	3.42889788e-01
5.17500000e+02	3.38763577e-01
5.18500000e+02	3.34687921e-01
5.19500000e+02	3.30664362e-01
5.20500000e+02	3.26694373e-01
5.21500000e+02	3.22779355e-01
5.22500000e+02	3.18920629e-01
5.23500000e+02	3.15119433e-01
5.24500000e+02	3.11376920e-01
5.25500000e+02	3.07694151e-01
5.26500000e+02	3.04072093e-01
5.27500000e+02	3.00511619e-01
5.28500000e+02	2.97013501e-01
5.29500000e+02	2.93578414e-01
5.30500000e+02	2.90206930e-01
5.31500000e+02	2.86899519e-01
5.32500000e+02	2.83656551e-01
5.33500000e+02	2.80478293e-01
5.34500000e+02	2.77364915e-01
5.35500000e+02	2.74316485e-01
5.36500000e+02	2.71332977e-01
5.37500000e+02	2.68414271e-01
5.38500000e+02	2.65560154e-01
5.39500000e+02	2.62770328e-01
5.40500000e+02	2.60044408e-01
5.41500000e+02	2.57381931e-01
5.42500000e+02	2.54782357e-01
5.43500000e+02	2.52245075e-01
5.44500000e+02	2.49769406e-01
5.45500000e+02	2.47354609e-01
5.46500000e+02	2.44999886e-01
5.47500000e+02	2.42704385e-01
5.48500000e+02	2.40467207e-01
5.49500000e+02	2.38287408e-01
5.50500000e+02	2.36164008e-01
5.51500000e+02	2.34095991e-01
5.52500000e+02	2.32082312e-01
5.53500000e+02	2.30121901e-01
5.54500000e+02	2.28213667e-01
5.55500000e+02	2.26356503e-01
5.56500000e+02	2.24549286e-01
5.57500000e+02	2.22790887e-01
5.58500000e+02	2.21080169e-01
5.59500000e+02	2.19415993e-01
5.60500000e+02	2.17797217e-01
5.61500000e+02	2.16222707e-01
5.62500000e+02	2.14691330e-01
5.63500000e+02	2.13201963e-01
5.64500000e+02	2.11753490e-01
5.65500000e+02	2.10344810e-01
5.66500000e+02	2.08974834e-01
5.67500000e+02	2.07642487e-01
5.68500000e+02	2.06346712e-01
5.69500000e+02	2.05086466e-01
5.70500000e+02	2.03860730e-01
5.71500000e+02	2.02668498e-01
5.72500000e+02	2.01508790e-01
5.73500000e+02	2.00380641e-01
5.74500000e+02	1.99283112e-01
5.75500000e+02	1.98215283e-01
5.76500000e+02	1.97176256e-01
5.77500000e+02	1.96165155e-01
5.78500000e+02	1.95181127e-01
5.79500000e+02	1.94223339e-01
5.80500000e+02	1.93290982e-01
5.81500000e+02	1.92383267e-01
5.82500000e+02	1.91499430e-01
5.83500000e+02	1.90638725e-01
5.84500000e+02	1.89800428e-01
5.85500000e+02	1.88983838e-01
5.86500000e+02	1.88188272e-01
5.87500000e+02	1.87413070e-01
5.88500000e+02	1.86657588e-01
5.89500000e+02	1.85921206e-01
5.90500000e+02	1.85203320e-01
5.91500000e+02	1.84503345e-01
5.92500000e+02	1.83820715e-01
5.93500000e+02	1.83154882e-01
5.94500000e+02	1.82505315e-01
5.95500000e+02	1.81871499e-01
5.96500000e+02	1.81252937e-01
5.97500000e+02	1.80649146e-01
5.98500000e+02	1.80059661e-01
5.99500000e+02	1.79484031e-01
6.00500000e+02	1.78921819e-01
6.01500000e+02	1.78372603e-01
6.02500000e+02	1.77835975e-01
6.03500000e+02	1.77311541e-01
6.04500000e+02	1.76798919e-01
6.05500000e+02	1.76297740e-01
6.06500000e+02	1.75807648e-01
6.07500000e+02	1.75328299e-01
6.08500000e+02	1.74859360e-01
6.09500000e+02	1.74400509e-01
6.10500000e+02	1.73951438e-01
6.11500000e+02	1.73511845e-01
6.12500000e+02	1.73081443e-01
6.13500000e+02	1.72659953e-01
6.14500000e+02	1.72247105e-01
6.15500000e+02	1.71842642e-01
6.16500000e+02	1.71446312e-01
6.17500000e+02	1.71057875e-01
6.18500000e+02	1.70677100e-01
6.19500000e+02	1.70303764e-01
6.20500000e+02	1.69937654e-01
6.21500000e+02	1.69578563e-01
6.22500000e+02	1.69226294e-01
6.23500000e+02	1.68880657e-01
6.24500000e+02	1.68541470e-01
6.25500000e+02	1.68208561e-01
6.26500000e+02	1.67881762e-01
6.27500000e+02	1.67560918e-01
6.28500000e+02	1.67245869e-01
6.29500000e+02	1.66936481e-01
6.30500000e+02	1.66632624e-01
6.31500000e+02	1.66334131e-01
6.32500000e+02	1.66040900e-01
6.33500000e+02	1.65752821e-01
6.34500000e+02	1.65469769e-01
6.35500000e+02	1.65191657e-01
6.36500000e+02	1.64918371e-01
6.37500000e+02	1.64649838e-01
6.38500000e+02	1.64385949e-01
6.39500000e+02	1.64126645e-01
6.40500000e+02	1.63871838e-01
6.41500000e+02	1.63621458e-01
6.42500000e+02	1.63375457e-01
6.43500000e+02	1.63133753e-01
6.44500000e+02	1.62896316e-01
6.45500000e+02	1.62663084e-01
6.46500000e+02	1.62434014e-01
6.47500000e+02	1.62209078e-01
6.48500000e+02	1.61988226e-01
6.49500000e+02	1.61771442e-01
6.50500000e+02	1.61558694e-01
6.51500000e+02	1.61349956e-01
6.52500000e+02	1.61145224e-01
6.53500000e+02	1.60944466e-01
6.54500000e+02	1.60747685e-01
6.55500000e+02	1.60554869e-01
6.56500000e+02	1.60366006e-01
6.57500000e+02	1.60181108e-01
6.58500000e+02	1.60000164e-01
6.59500000e+02	1.59823185e-01
6.60500000e+02	1.59650176e-01
