# Profil de Te au temps 3.000000000000013e-12 
# simu : /Volumes/MERCURE/JOBS/Zeq2_tanh_50mic_1p5e20_B0_20ps/GNU/Te@y-c.set
# col 0 : abscisse (um)
# col 1 : Te (keV)
5.00000000e-01	9.99999914e-01
1.50000000e+00	9.99999910e-01
2.50000000e+00	9.99999911e-01
3.50000000e+00	9.99999912e-01
4.50000000e+00	9.99999911e-01
5.50000000e+00	9.99999910e-01
6.50000000e+00	9.99999908e-01
7.50000000e+00	9.99999906e-01
8.50000000e+00	9.99999904e-01
9.50000000e+00	9.99999902e-01
1.05000000e+01	9.99999899e-01
1.15000000e+01	9.99999897e-01
1.25000000e+01	9.99999894e-01
1.35000000e+01	9.99999891e-01
1.45000000e+01	9.99999888e-01
1.55000000e+01	9.99999885e-01
1.65000000e+01	9.99999881e-01
1.75000000e+01	9.99999877e-01
1.85000000e+01	9.99999874e-01
1.95000000e+01	9.99999870e-01
2.05000000e+01	9.99999865e-01
2.15000000e+01	9.99999861e-01
2.25000000e+01	9.99999856e-01
2.35000000e+01	9.99999851e-01
2.45000000e+01	9.99999846e-01
2.55000000e+01	9.99999841e-01
2.65000000e+01	9.99999835e-01
2.75000000e+01	9.99999829e-01
2.85000000e+01	9.99999823e-01
2.95000000e+01	9.99999817e-01
3.05000000e+01	9.99999810e-01
3.15000000e+01	9.99999803e-01
3.25000000e+01	9.99999795e-01
3.35000000e+01	9.99999788e-01
3.45000000e+01	9.99999780e-01
3.55000000e+01	9.99999771e-01
3.65000000e+01	9.99999762e-01
3.75000000e+01	9.99999753e-01
3.85000000e+01	9.99999744e-01
3.95000000e+01	9.99999734e-01
4.05000000e+01	9.99999723e-01
4.15000000e+01	9.99999713e-01
4.25000000e+01	9.99999701e-01
4.35000000e+01	9.99999690e-01
4.45000000e+01	9.99999677e-01
4.55000000e+01	9.99999665e-01
4.65000000e+01	9.99999651e-01
4.75000000e+01	9.99999637e-01
4.85000000e+01	9.99999623e-01
4.95000000e+01	9.99999608e-01
5.05000000e+01	9.99999592e-01
5.15000000e+01	9.99999576e-01
5.25000000e+01	9.99999559e-01
5.35000000e+01	9.99999541e-01
5.45000000e+01	9.99999523e-01
5.55000000e+01	9.99999504e-01
5.65000000e+01	9.99999484e-01
5.75000000e+01	9.99999463e-01
5.85000000e+01	9.99999441e-01
5.95000000e+01	9.99999419e-01
6.05000000e+01	9.99999395e-01
6.15000000e+01	9.99999371e-01
6.25000000e+01	9.99999345e-01
6.35000000e+01	9.99999319e-01
6.45000000e+01	9.99999291e-01
6.55000000e+01	9.99999263e-01
6.65000000e+01	9.99999233e-01
6.75000000e+01	9.99999202e-01
6.85000000e+01	9.99999169e-01
6.95000000e+01	9.99999136e-01
7.05000000e+01	9.99999101e-01
7.15000000e+01	9.99999064e-01
7.25000000e+01	9.99999026e-01
7.35000000e+01	9.99998986e-01
7.45000000e+01	9.99998945e-01
7.55000000e+01	9.99998902e-01
7.65000000e+01	9.99998858e-01
7.75000000e+01	9.99998811e-01
7.85000000e+01	9.99998763e-01
7.95000000e+01	9.99998712e-01
8.05000000e+01	9.99998660e-01
8.15000000e+01	9.99998605e-01
8.25000000e+01	9.99998549e-01
8.35000000e+01	9.99998489e-01
8.45000000e+01	9.99998428e-01
8.55000000e+01	9.99998364e-01
8.65000000e+01	9.99998297e-01
8.75000000e+01	9.99998228e-01
8.85000000e+01	9.99998156e-01
8.95000000e+01	9.99998080e-01
9.05000000e+01	9.99998002e-01
9.15000000e+01	9.99997921e-01
9.25000000e+01	9.99997836e-01
9.35000000e+01	9.99997747e-01
9.45000000e+01	9.99997656e-01
9.55000000e+01	9.99997560e-01
9.65000000e+01	9.99997460e-01
9.75000000e+01	9.99997357e-01
9.85000000e+01	9.99997249e-01
9.95000000e+01	9.99997137e-01
1.00500000e+02	9.99997020e-01
1.01500000e+02	9.99996898e-01
1.02500000e+02	9.99996772e-01
1.03500000e+02	9.99996640e-01
1.04500000e+02	9.99996503e-01
1.05500000e+02	9.99996361e-01
1.06500000e+02	9.99996212e-01
1.07500000e+02	9.99996057e-01
1.08500000e+02	9.99995897e-01
1.09500000e+02	9.99995729e-01
1.10500000e+02	9.99995555e-01
1.11500000e+02	9.99995374e-01
1.12500000e+02	9.99995185e-01
1.13500000e+02	9.99994988e-01
1.14500000e+02	9.99994784e-01
1.15500000e+02	9.99994571e-01
1.16500000e+02	9.99994350e-01
1.17500000e+02	9.99994119e-01
1.18500000e+02	9.99993879e-01
1.19500000e+02	9.99993629e-01
1.20500000e+02	9.99993369e-01
1.21500000e+02	9.99993099e-01
1.22500000e+02	9.99992817e-01
1.23500000e+02	9.99992524e-01
1.24500000e+02	9.99992219e-01
1.25500000e+02	9.99991902e-01
1.26500000e+02	9.99991571e-01
1.27500000e+02	9.99991227e-01
1.28500000e+02	9.99990870e-01
1.29500000e+02	9.99990497e-01
1.30500000e+02	9.99990109e-01
1.31500000e+02	9.99989706e-01
1.32500000e+02	9.99989286e-01
1.33500000e+02	9.99988849e-01
1.34500000e+02	9.99988394e-01
1.35500000e+02	9.99987920e-01
1.36500000e+02	9.99987427e-01
1.37500000e+02	9.99986914e-01
1.38500000e+02	9.99986380e-01
1.39500000e+02	9.99985825e-01
1.40500000e+02	9.99985246e-01
1.41500000e+02	9.99984645e-01
1.42500000e+02	9.99984018e-01
1.43500000e+02	9.99983366e-01
1.44500000e+02	9.99982687e-01
1.45500000e+02	9.99981981e-01
1.46500000e+02	9.99981246e-01
1.47500000e+02	9.99980481e-01
1.48500000e+02	9.99979685e-01
1.49500000e+02	9.99978856e-01
1.50500000e+02	9.99977994e-01
1.51500000e+02	9.99977096e-01
1.52500000e+02	9.99976162e-01
1.53500000e+02	9.99975189e-01
1.54500000e+02	9.99974177e-01
1.55500000e+02	9.99973124e-01
1.56500000e+02	9.99972027e-01
1.57500000e+02	9.99970887e-01
1.58500000e+02	9.99969699e-01
1.59500000e+02	9.99968463e-01
1.60500000e+02	9.99967177e-01
1.61500000e+02	9.99965838e-01
1.62500000e+02	9.99964445e-01
1.63500000e+02	9.99962995e-01
1.64500000e+02	9.99961486e-01
1.65500000e+02	9.99959915e-01
1.66500000e+02	9.99958280e-01
1.67500000e+02	9.99956579e-01
1.68500000e+02	9.99954809e-01
1.69500000e+02	9.99952966e-01
1.70500000e+02	9.99951048e-01
1.71500000e+02	9.99949052e-01
1.72500000e+02	9.99946975e-01
1.73500000e+02	9.99944813e-01
1.74500000e+02	9.99942563e-01
1.75500000e+02	9.99940222e-01
1.76500000e+02	9.99937785e-01
1.77500000e+02	9.99935249e-01
1.78500000e+02	9.99932609e-01
1.79500000e+02	9.99929863e-01
1.80500000e+02	9.99927004e-01
1.81500000e+02	9.99924029e-01
1.82500000e+02	9.99920933e-01
1.83500000e+02	9.99917711e-01
1.84500000e+02	9.99914358e-01
1.85500000e+02	9.99910868e-01
1.86500000e+02	9.99907237e-01
1.87500000e+02	9.99903457e-01
1.88500000e+02	9.99899524e-01
1.89500000e+02	9.99895432e-01
1.90500000e+02	9.99891172e-01
1.91500000e+02	9.99886740e-01
1.92500000e+02	9.99882127e-01
1.93500000e+02	9.99877327e-01
1.94500000e+02	9.99872332e-01
1.95500000e+02	9.99867134e-01
1.96500000e+02	9.99861725e-01
1.97500000e+02	9.99856097e-01
1.98500000e+02	9.99850239e-01
1.99500000e+02	9.99844144e-01
2.00500000e+02	9.99837802e-01
2.01500000e+02	9.99831202e-01
2.02500000e+02	9.99824335e-01
2.03500000e+02	9.99817189e-01
2.04500000e+02	9.99809753e-01
2.05500000e+02	9.99802016e-01
2.06500000e+02	9.99793965e-01
2.07500000e+02	9.99785589e-01
2.08500000e+02	9.99776873e-01
2.09500000e+02	9.99767804e-01
2.10500000e+02	9.99758368e-01
2.11500000e+02	9.99748550e-01
2.12500000e+02	9.99738335e-01
2.13500000e+02	9.99727707e-01
2.14500000e+02	9.99716650e-01
2.15500000e+02	9.99705146e-01
2.16500000e+02	9.99693177e-01
2.17500000e+02	9.99680725e-01
2.18500000e+02	9.99667770e-01
2.19500000e+02	9.99654293e-01
2.20500000e+02	9.99640273e-01
2.21500000e+02	9.99625687e-01
2.22500000e+02	9.99610514e-01
2.23500000e+02	9.99594730e-01
2.24500000e+02	9.99578311e-01
2.25500000e+02	9.99561232e-01
2.26500000e+02	9.99543467e-01
2.27500000e+02	9.99524987e-01
2.28500000e+02	9.99505766e-01
2.29500000e+02	9.99485774e-01
2.30500000e+02	9.99464981e-01
2.31500000e+02	9.99443354e-01
2.32500000e+02	9.99420861e-01
2.33500000e+02	9.99397469e-01
2.34500000e+02	9.99373141e-01
2.35500000e+02	9.99347842e-01
2.36500000e+02	9.99321533e-01
2.37500000e+02	9.99294174e-01
2.38500000e+02	9.99265726e-01
2.39500000e+02	9.99236145e-01
2.40500000e+02	9.99205388e-01
2.41500000e+02	9.99173408e-01
2.42500000e+02	9.99140160e-01
2.43500000e+02	9.99105592e-01
2.44500000e+02	9.99069656e-01
2.45500000e+02	9.99032298e-01
2.46500000e+02	9.98993463e-01
2.47500000e+02	9.98953095e-01
2.48500000e+02	9.98911136e-01
2.49500000e+02	9.98867524e-01
2.50500000e+02	9.98822198e-01
2.51500000e+02	9.98775091e-01
2.52500000e+02	9.98726137e-01
2.53500000e+02	9.98675265e-01
2.54500000e+02	9.98622405e-01
2.55500000e+02	9.98567480e-01
2.56500000e+02	9.98510414e-01
2.57500000e+02	9.98451127e-01
2.58500000e+02	9.98389536e-01
2.59500000e+02	9.98325556e-01
2.60500000e+02	9.98259098e-01
2.61500000e+02	9.98190072e-01
2.62500000e+02	9.98118383e-01
2.63500000e+02	9.98043933e-01
2.64500000e+02	9.97966623e-01
2.65500000e+02	9.97886348e-01
2.66500000e+02	9.97803000e-01
2.67500000e+02	9.97716470e-01
2.68500000e+02	9.97626643e-01
2.69500000e+02	9.97533401e-01
2.70500000e+02	9.97436623e-01
2.71500000e+02	9.97336184e-01
2.72500000e+02	9.97231954e-01
2.73500000e+02	9.97123801e-01
2.74500000e+02	9.97011587e-01
2.75500000e+02	9.96895171e-01
2.76500000e+02	9.96774408e-01
2.77500000e+02	9.96649148e-01
2.78500000e+02	9.96519238e-01
2.79500000e+02	9.96384519e-01
2.80500000e+02	9.96244828e-01
2.81500000e+02	9.96099998e-01
2.82500000e+02	9.95949857e-01
2.83500000e+02	9.95794228e-01
2.84500000e+02	9.95632930e-01
2.85500000e+02	9.95465775e-01
2.86500000e+02	9.95292574e-01
2.87500000e+02	9.95113129e-01
2.88500000e+02	9.94927240e-01
2.89500000e+02	9.94734700e-01
2.90500000e+02	9.94535297e-01
2.91500000e+02	9.94328815e-01
2.92500000e+02	9.94115032e-01
2.93500000e+02	9.93893720e-01
2.94500000e+02	9.93664648e-01
2.95500000e+02	9.93427577e-01
2.96500000e+02	9.93182263e-01
2.97500000e+02	9.92928460e-01
2.98500000e+02	9.92665911e-01
2.99500000e+02	9.92394358e-01
3.00500000e+02	9.92113536e-01
3.01500000e+02	9.91823174e-01
3.02500000e+02	9.91522997e-01
3.03500000e+02	9.91212723e-01
3.04500000e+02	9.90892065e-01
3.05500000e+02	9.90560731e-01
3.06500000e+02	9.90218424e-01
3.07500000e+02	9.89864841e-01
3.08500000e+02	9.89499672e-01
3.09500000e+02	9.89122606e-01
3.10500000e+02	9.88733322e-01
3.11500000e+02	9.88331496e-01
3.12500000e+02	9.87916800e-01
3.13500000e+02	9.87488899e-01
3.14500000e+02	9.87047454e-01
3.15500000e+02	9.86592119e-01
3.16500000e+02	9.86122546e-01
3.17500000e+02	9.85638381e-01
3.18500000e+02	9.85139265e-01
3.19500000e+02	9.84624835e-01
3.20500000e+02	9.84094721e-01
3.21500000e+02	9.83548553e-01
3.22500000e+02	9.82985952e-01
3.23500000e+02	9.82406539e-01
3.24500000e+02	9.81809927e-01
3.25500000e+02	9.81195728e-01
3.26500000e+02	9.80563548e-01
3.27500000e+02	9.79912990e-01
3.28500000e+02	9.79243654e-01
3.29500000e+02	9.78555135e-01
3.30500000e+02	9.77847025e-01
3.31500000e+02	9.77118914e-01
3.32500000e+02	9.76370386e-01
3.33500000e+02	9.75601025e-01
3.34500000e+02	9.74810409e-01
3.35500000e+02	9.73998117e-01
3.36500000e+02	9.73163720e-01
3.37500000e+02	9.72306791e-01
3.38500000e+02	9.71426897e-01
3.39500000e+02	9.70523606e-01
3.40500000e+02	9.69596480e-01
3.41500000e+02	9.68645081e-01
3.42500000e+02	9.67668968e-01
3.43500000e+02	9.66667698e-01
3.44500000e+02	9.65640826e-01
3.45500000e+02	9.64587904e-01
3.46500000e+02	9.63508485e-01
3.47500000e+02	9.62402117e-01
3.48500000e+02	9.61268346e-01
3.49500000e+02	9.60106720e-01
3.50500000e+02	9.58916780e-01
3.51500000e+02	9.57698070e-01
3.52500000e+02	9.56450129e-01
3.53500000e+02	9.55172496e-01
3.54500000e+02	9.53864707e-01
3.55500000e+02	9.52526297e-01
3.56500000e+02	9.51156799e-01
3.57500000e+02	9.49755745e-01
3.58500000e+02	9.48322663e-01
3.59500000e+02	9.46857081e-01
3.60500000e+02	9.45358524e-01
3.61500000e+02	9.43826516e-01
3.62500000e+02	9.42260577e-01
3.63500000e+02	9.40660227e-01
3.64500000e+02	9.39024982e-01
3.65500000e+02	9.37354355e-01
3.66500000e+02	9.35647860e-01
3.67500000e+02	9.33905003e-01
3.68500000e+02	9.32125292e-01
3.69500000e+02	9.30308229e-01
3.70500000e+02	9.28453315e-01
3.71500000e+02	9.26560046e-01
3.72500000e+02	9.24627917e-01
3.73500000e+02	9.22656416e-01
3.74500000e+02	9.20645032e-01
3.75500000e+02	9.18593246e-01
3.76500000e+02	9.16500537e-01
3.77500000e+02	9.14366382e-01
3.78500000e+02	9.12190251e-01
3.79500000e+02	9.09971611e-01
3.80500000e+02	9.07709925e-01
3.81500000e+02	9.05404650e-01
3.82500000e+02	9.03055243e-01
3.83500000e+02	9.00661151e-01
3.84500000e+02	8.98221819e-01
3.85500000e+02	8.95736690e-01
3.86500000e+02	8.93205198e-01
3.87500000e+02	8.90626776e-01
3.88500000e+02	8.88000850e-01
3.89500000e+02	8.85326844e-01
3.90500000e+02	8.82604177e-01
3.91500000e+02	8.79832263e-01
3.92500000e+02	8.77010513e-01
3.93500000e+02	8.74138335e-01
3.94500000e+02	8.71215134e-01
3.95500000e+02	8.68240309e-01
3.96500000e+02	8.65213259e-01
3.97500000e+02	8.62133382e-01
3.98500000e+02	8.59000070e-01
3.99500000e+02	8.55812718e-01
4.00500000e+02	8.52570717e-01
4.01500000e+02	8.49273461e-01
4.02500000e+02	8.45920343e-01
4.03500000e+02	8.42510758e-01
4.04500000e+02	8.39044103e-01
4.05500000e+02	8.35519779e-01
4.06500000e+02	8.31937190e-01
4.07500000e+02	8.28295747e-01
4.08500000e+02	8.24594866e-01
4.09500000e+02	8.20833973e-01
4.10500000e+02	8.17012500e-01
4.11500000e+02	8.13129891e-01
4.12500000e+02	8.09185604e-01
4.13500000e+02	8.05179108e-01
4.14500000e+02	8.01109887e-01
4.15500000e+02	7.96977444e-01
4.16500000e+02	7.92781300e-01
4.17500000e+02	7.88520997e-01
4.18500000e+02	7.84196099e-01
4.19500000e+02	7.79806197e-01
4.20500000e+02	7.75350906e-01
4.21500000e+02	7.70829874e-01
4.22500000e+02	7.66242779e-01
4.23500000e+02	7.61589333e-01
4.24500000e+02	7.56869285e-01
4.25500000e+02	7.52082424e-01
4.26500000e+02	7.47228582e-01
4.27500000e+02	7.42307633e-01
4.28500000e+02	7.37319500e-01
4.29500000e+02	7.32264156e-01
4.30500000e+02	7.27141629e-01
4.31500000e+02	7.21952000e-01
4.32500000e+02	7.16695409e-01
4.33500000e+02	7.11372062e-01
4.34500000e+02	7.05982223e-01
4.35500000e+02	7.00526230e-01
4.36500000e+02	6.95004487e-01
4.37500000e+02	6.89417474e-01
4.38500000e+02	6.83765744e-01
4.39500000e+02	6.78049932e-01
4.40500000e+02	6.72270753e-01
4.41500000e+02	6.66429006e-01
4.42500000e+02	6.60525576e-01
4.43500000e+02	6.54561440e-01
4.44500000e+02	6.48537663e-01
4.45500000e+02	6.42455406e-01
4.46500000e+02	6.36315925e-01
4.47500000e+02	6.30120572e-01
4.48500000e+02	6.23870801e-01
4.49500000e+02	6.17568167e-01
4.50500000e+02	6.11214326e-01
4.51500000e+02	6.04811038e-01
4.52500000e+02	5.98360169e-01
4.53500000e+02	5.91863691e-01
4.54500000e+02	5.85323681e-01
4.55500000e+02	5.78742323e-01
4.56500000e+02	5.72121909e-01
4.57500000e+02	5.65464838e-01
4.58500000e+02	5.58773615e-01
4.59500000e+02	5.52050850e-01
4.60500000e+02	5.45299258e-01
4.61500000e+02	5.38521659e-01
4.62500000e+02	5.31720975e-01
4.63500000e+02	5.24900225e-01
4.64500000e+02	5.18062528e-01
4.65500000e+02	5.11211098e-01
4.66500000e+02	5.04349239e-01
4.67500000e+02	4.97480344e-01
4.68500000e+02	4.90607889e-01
4.69500000e+02	4.83735430e-01
4.70500000e+02	4.76866596e-01
4.71500000e+02	4.70005086e-01
4.72500000e+02	4.63154662e-01
4.73500000e+02	4.56319139e-01
4.74500000e+02	4.49502386e-01
4.75500000e+02	4.42708308e-01
4.76500000e+02	4.35940848e-01
4.77500000e+02	4.29203971e-01
4.78500000e+02	4.22501658e-01
4.79500000e+02	4.15837897e-01
4.80500000e+02	4.09216674e-01
4.81500000e+02	4.02641958e-01
4.82500000e+02	3.96117697e-01
4.83500000e+02	3.89647802e-01
4.84500000e+02	3.83236142e-01
4.85500000e+02	3.76886527e-01
4.86500000e+02	3.70602699e-01
4.87500000e+02	3.64388326e-01
4.88500000e+02	3.58246984e-01
4.89500000e+02	3.52182152e-01
4.90500000e+02	3.46197201e-01
4.91500000e+02	3.40295382e-01
4.92500000e+02	3.34479820e-01
4.93500000e+02	3.28753503e-01
4.94500000e+02	3.23119278e-01
4.95500000e+02	3.17579840e-01
4.96500000e+02	3.12137724e-01
4.97500000e+02	3.06795306e-01
4.98500000e+02	3.01554791e-01
4.99500000e+02	2.96418213e-01
5.00500000e+02	2.91387430e-01
5.01500000e+02	2.86464119e-01
5.02500000e+02	2.81649778e-01
5.03500000e+02	2.76945721e-01
5.04500000e+02	2.72353078e-01
5.05500000e+02	2.67872795e-01
5.06500000e+02	2.63505635e-01
5.07500000e+02	2.59252175e-01
5.08500000e+02	2.55112810e-01
5.09500000e+02	2.51087753e-01
5.10500000e+02	2.47177037e-01
5.11500000e+02	2.43380518e-01
5.12500000e+02	2.39697873e-01
5.13500000e+02	2.36128608e-01
5.14500000e+02	2.32672056e-01
5.15500000e+02	2.29327384e-01
5.16500000e+02	2.26093594e-01
5.17500000e+02	2.22969525e-01
5.18500000e+02	2.19953863e-01
5.19500000e+02	2.17045140e-01
5.20500000e+02	2.14241742e-01
5.21500000e+02	2.11541916e-01
5.22500000e+02	2.08943774e-01
5.23500000e+02	2.06445300e-01
5.24500000e+02	2.04044362e-01
5.25500000e+02	2.01738715e-01
5.26500000e+02	1.99526015e-01
5.27500000e+02	1.97403829e-01
5.28500000e+02	1.95369640e-01
5.29500000e+02	1.93420865e-01
5.30500000e+02	1.91554865e-01
5.31500000e+02	1.89768954e-01
5.32500000e+02	1.88060415e-01
5.33500000e+02	1.86426510e-01
5.34500000e+02	1.84864493e-01
5.35500000e+02	1.83371622e-01
5.36500000e+02	1.81945172e-01
5.37500000e+02	1.80582444e-01
5.38500000e+02	1.79280775e-01
5.39500000e+02	1.78037552e-01
5.40500000e+02	1.76850214e-01
5.41500000e+02	1.75716266e-01
5.42500000e+02	1.74633281e-01
5.43500000e+02	1.73598909e-01
5.44500000e+02	1.72610879e-01
5.45500000e+02	1.71667005e-01
5.46500000e+02	1.70765186e-01
5.47500000e+02	1.69903409e-01
5.48500000e+02	1.69079748e-01
5.49500000e+02	1.68292367e-01
5.50500000e+02	1.67539515e-01
5.51500000e+02	1.66819529e-01
5.52500000e+02	1.66130825e-01
5.53500000e+02	1.65471905e-01
5.54500000e+02	1.64841346e-01
5.55500000e+02	1.64237799e-01
5.56500000e+02	1.63659990e-01
5.57500000e+02	1.63106709e-01
5.58500000e+02	1.62576813e-01
5.59500000e+02	1.62069220e-01
5.60500000e+02	1.61582906e-01
5.61500000e+02	1.61116900e-01
5.62500000e+02	1.60670283e-01
5.63500000e+02	1.60242184e-01
5.64500000e+02	1.59831778e-01
5.65500000e+02	1.59438281e-01
5.66500000e+02	1.59060951e-01
5.67500000e+02	1.58699080e-01
5.68500000e+02	1.58351999e-01
5.69500000e+02	1.58019068e-01
5.70500000e+02	1.57699682e-01
5.71500000e+02	1.57393261e-01
5.72500000e+02	1.57099256e-01
5.73500000e+02	1.56817143e-01
5.74500000e+02	1.56546420e-01
5.75500000e+02	1.56286611e-01
5.76500000e+02	1.56037261e-01
5.77500000e+02	1.55797934e-01
5.78500000e+02	1.55568214e-01
5.79500000e+02	1.55347706e-01
5.80500000e+02	1.55136030e-01
5.81500000e+02	1.54932822e-01
5.82500000e+02	1.54737736e-01
5.83500000e+02	1.54550440e-01
5.84500000e+02	1.54370616e-01
5.85500000e+02	1.54197960e-01
5.86500000e+02	1.54032180e-01
5.87500000e+02	1.53872999e-01
5.88500000e+02	1.53720148e-01
5.89500000e+02	1.53573372e-01
5.90500000e+02	1.53432426e-01
5.91500000e+02	1.53297075e-01
5.92500000e+02	1.53167094e-01
5.93500000e+02	1.53042266e-01
5.94500000e+02	1.52922386e-01
5.95500000e+02	1.52807254e-01
5.96500000e+02	1.52696681e-01
5.97500000e+02	1.52590484e-01
5.98500000e+02	1.52488487e-01
5.99500000e+02	1.52390525e-01
6.00500000e+02	1.52296434e-01
6.01500000e+02	1.52206062e-01
6.02500000e+02	1.52119259e-01
6.03500000e+02	1.52035885e-01
6.04500000e+02	1.51955801e-01
6.05500000e+02	1.51878878e-01
6.06500000e+02	1.51804990e-01
6.07500000e+02	1.51734017e-01
6.08500000e+02	1.51665842e-01
6.09500000e+02	1.51600355e-01
6.10500000e+02	1.51537449e-01
6.11500000e+02	1.51477021e-01
6.12500000e+02	1.51418975e-01
6.13500000e+02	1.51363215e-01
6.14500000e+02	1.51309651e-01
6.15500000e+02	1.51258196e-01
6.16500000e+02	1.51208767e-01
6.17500000e+02	1.51161283e-01
6.18500000e+02	1.51115668e-01
6.19500000e+02	1.51071848e-01
6.20500000e+02	1.51029752e-01
6.21500000e+02	1.50989312e-01
6.22500000e+02	1.50950462e-01
6.23500000e+02	1.50913141e-01
6.24500000e+02	1.50877287e-01
6.25500000e+02	1.50842842e-01
6.26500000e+02	1.50809752e-01
6.27500000e+02	1.50777963e-01
6.28500000e+02	1.50747423e-01
6.29500000e+02	1.50718083e-01
6.30500000e+02	1.50689897e-01
6.31500000e+02	1.50662817e-01
6.32500000e+02	1.50636802e-01
6.33500000e+02	1.50611809e-01
6.34500000e+02	1.50587798e-01
6.35500000e+02	1.50564730e-01
6.36500000e+02	1.50542568e-01
6.37500000e+02	1.50521276e-01
6.38500000e+02	1.50500821e-01
6.39500000e+02	1.50481169e-01
6.40500000e+02	1.50462289e-01
6.41500000e+02	1.50444150e-01
6.42500000e+02	1.50426723e-01
6.43500000e+02	1.50409980e-01
6.44500000e+02	1.50393895e-01
6.45500000e+02	1.50378441e-01
6.46500000e+02	1.50363594e-01
6.47500000e+02	1.50349330e-01
6.48500000e+02	1.50335625e-01
6.49500000e+02	1.50322459e-01
6.50500000e+02	1.50309809e-01
6.51500000e+02	1.50297656e-01
6.52500000e+02	1.50285980e-01
6.53500000e+02	1.50274763e-01
6.54500000e+02	1.50263985e-01
6.55500000e+02	1.50253631e-01
6.56500000e+02	1.50243684e-01
6.57500000e+02	1.50234128e-01
6.58500000e+02	1.50224948e-01
6.59500000e+02	1.50216128e-01
6.60500000e+02	1.50207656e-01
