# Profil de Te au temps 6.000000000000061e-12 
# simu : /Volumes/MERCURE/JOBS/Zeq2_tanh_50mic_1p5e20_B0_20ps/GNU/Te@y-c.set
# col 0 : abscisse (um)
# col 1 : Te (keV)
5.00000000e-01	9.99997728e-01
1.50000000e+00	9.99997721e-01
2.50000000e+00	9.99997715e-01
3.50000000e+00	9.99997706e-01
4.50000000e+00	9.99997691e-01
5.50000000e+00	9.99997672e-01
6.50000000e+00	9.99997649e-01
7.50000000e+00	9.99997622e-01
8.50000000e+00	9.99997592e-01
9.50000000e+00	9.99997557e-01
1.05000000e+01	9.99997519e-01
1.15000000e+01	9.99997476e-01
1.25000000e+01	9.99997430e-01
1.35000000e+01	9.99997379e-01
1.45000000e+01	9.99997325e-01
1.55000000e+01	9.99997266e-01
1.65000000e+01	9.99997202e-01
1.75000000e+01	9.99997134e-01
1.85000000e+01	9.99997062e-01
1.95000000e+01	9.99996985e-01
2.05000000e+01	9.99996903e-01
2.15000000e+01	9.99996816e-01
2.25000000e+01	9.99996724e-01
2.35000000e+01	9.99996626e-01
2.45000000e+01	9.99996524e-01
2.55000000e+01	9.99996416e-01
2.65000000e+01	9.99996302e-01
2.75000000e+01	9.99996182e-01
2.85000000e+01	9.99996056e-01
2.95000000e+01	9.99995924e-01
3.05000000e+01	9.99995785e-01
3.15000000e+01	9.99995639e-01
3.25000000e+01	9.99995487e-01
3.35000000e+01	9.99995327e-01
3.45000000e+01	9.99995160e-01
3.55000000e+01	9.99994986e-01
3.65000000e+01	9.99994803e-01
3.75000000e+01	9.99994612e-01
3.85000000e+01	9.99994412e-01
3.95000000e+01	9.99994203e-01
4.05000000e+01	9.99993986e-01
4.15000000e+01	9.99993758e-01
4.25000000e+01	9.99993521e-01
4.35000000e+01	9.99993273e-01
4.45000000e+01	9.99993015e-01
4.55000000e+01	9.99992745e-01
4.65000000e+01	9.99992464e-01
4.75000000e+01	9.99992171e-01
4.85000000e+01	9.99991866e-01
4.95000000e+01	9.99991548e-01
5.05000000e+01	9.99991216e-01
5.15000000e+01	9.99990870e-01
5.25000000e+01	9.99990510e-01
5.35000000e+01	9.99990134e-01
5.45000000e+01	9.99989743e-01
5.55000000e+01	9.99989336e-01
5.65000000e+01	9.99988912e-01
5.75000000e+01	9.99988470e-01
5.85000000e+01	9.99988010e-01
5.95000000e+01	9.99987530e-01
6.05000000e+01	9.99987032e-01
6.15000000e+01	9.99986512e-01
6.25000000e+01	9.99985971e-01
6.35000000e+01	9.99985408e-01
6.45000000e+01	9.99984822e-01
6.55000000e+01	9.99984212e-01
6.65000000e+01	9.99983577e-01
6.75000000e+01	9.99982916e-01
6.85000000e+01	9.99982228e-01
6.95000000e+01	9.99981512e-01
7.05000000e+01	9.99980767e-01
7.15000000e+01	9.99979992e-01
7.25000000e+01	9.99979185e-01
7.35000000e+01	9.99978345e-01
7.45000000e+01	9.99977471e-01
7.55000000e+01	9.99976562e-01
7.65000000e+01	9.99975616e-01
7.75000000e+01	9.99974631e-01
7.85000000e+01	9.99973607e-01
7.95000000e+01	9.99972541e-01
8.05000000e+01	9.99971433e-01
8.15000000e+01	9.99970279e-01
8.25000000e+01	9.99969080e-01
8.35000000e+01	9.99967831e-01
8.45000000e+01	9.99966533e-01
8.55000000e+01	9.99965182e-01
8.65000000e+01	9.99963777e-01
8.75000000e+01	9.99962316e-01
8.85000000e+01	9.99960796e-01
8.95000000e+01	9.99959215e-01
9.05000000e+01	9.99957571e-01
9.15000000e+01	9.99955861e-01
9.25000000e+01	9.99954083e-01
9.35000000e+01	9.99952234e-01
9.45000000e+01	9.99950310e-01
9.55000000e+01	9.99948310e-01
9.65000000e+01	9.99946231e-01
9.75000000e+01	9.99944069e-01
9.85000000e+01	9.99941820e-01
9.95000000e+01	9.99939483e-01
1.00500000e+02	9.99937052e-01
1.01500000e+02	9.99934525e-01
1.02500000e+02	9.99931898e-01
1.03500000e+02	9.99929168e-01
1.04500000e+02	9.99926329e-01
1.05500000e+02	9.99923378e-01
1.06500000e+02	9.99920311e-01
1.07500000e+02	9.99917123e-01
1.08500000e+02	9.99913810e-01
1.09500000e+02	9.99910366e-01
1.10500000e+02	9.99906787e-01
1.11500000e+02	9.99903069e-01
1.12500000e+02	9.99899204e-01
1.13500000e+02	9.99895189e-01
1.14500000e+02	9.99891016e-01
1.15500000e+02	9.99886681e-01
1.16500000e+02	9.99882178e-01
1.17500000e+02	9.99877499e-01
1.18500000e+02	9.99872639e-01
1.19500000e+02	9.99867590e-01
1.20500000e+02	9.99862346e-01
1.21500000e+02	9.99856900e-01
1.22500000e+02	9.99851243e-01
1.23500000e+02	9.99845369e-01
1.24500000e+02	9.99839269e-01
1.25500000e+02	9.99832935e-01
1.26500000e+02	9.99826358e-01
1.27500000e+02	9.99819530e-01
1.28500000e+02	9.99812441e-01
1.29500000e+02	9.99805082e-01
1.30500000e+02	9.99797443e-01
1.31500000e+02	9.99789514e-01
1.32500000e+02	9.99781286e-01
1.33500000e+02	9.99772746e-01
1.34500000e+02	9.99763884e-01
1.35500000e+02	9.99754688e-01
1.36500000e+02	9.99745147e-01
1.37500000e+02	9.99735249e-01
1.38500000e+02	9.99724980e-01
1.39500000e+02	9.99714328e-01
1.40500000e+02	9.99703280e-01
1.41500000e+02	9.99691822e-01
1.42500000e+02	9.99679939e-01
1.43500000e+02	9.99667616e-01
1.44500000e+02	9.99654840e-01
1.45500000e+02	9.99641593e-01
1.46500000e+02	9.99627861e-01
1.47500000e+02	9.99613626e-01
1.48500000e+02	9.99598872e-01
1.49500000e+02	9.99583580e-01
1.50500000e+02	9.99567734e-01
1.51500000e+02	9.99551314e-01
1.52500000e+02	9.99534302e-01
1.53500000e+02	9.99516677e-01
1.54500000e+02	9.99498420e-01
1.55500000e+02	9.99479510e-01
1.56500000e+02	9.99459926e-01
1.57500000e+02	9.99439645e-01
1.58500000e+02	9.99418645e-01
1.59500000e+02	9.99396903e-01
1.60500000e+02	9.99374395e-01
1.61500000e+02	9.99351097e-01
1.62500000e+02	9.99326984e-01
1.63500000e+02	9.99302030e-01
1.64500000e+02	9.99276208e-01
1.65500000e+02	9.99249493e-01
1.66500000e+02	9.99221855e-01
1.67500000e+02	9.99193268e-01
1.68500000e+02	9.99163700e-01
1.69500000e+02	9.99133124e-01
1.70500000e+02	9.99101507e-01
1.71500000e+02	9.99068820e-01
1.72500000e+02	9.99035029e-01
1.73500000e+02	9.99000102e-01
1.74500000e+02	9.98964006e-01
1.75500000e+02	9.98926706e-01
1.76500000e+02	9.98888168e-01
1.77500000e+02	9.98848354e-01
1.78500000e+02	9.98807230e-01
1.79500000e+02	9.98764756e-01
1.80500000e+02	9.98720896e-01
1.81500000e+02	9.98675609e-01
1.82500000e+02	9.98628856e-01
1.83500000e+02	9.98580597e-01
1.84500000e+02	9.98530790e-01
1.85500000e+02	9.98479392e-01
1.86500000e+02	9.98426360e-01
1.87500000e+02	9.98371651e-01
1.88500000e+02	9.98315219e-01
1.89500000e+02	9.98257019e-01
1.90500000e+02	9.98197005e-01
1.91500000e+02	9.98135128e-01
1.92500000e+02	9.98071341e-01
1.93500000e+02	9.98005595e-01
1.94500000e+02	9.97937840e-01
1.95500000e+02	9.97868024e-01
1.96500000e+02	9.97796098e-01
1.97500000e+02	9.97722008e-01
1.98500000e+02	9.97645700e-01
1.99500000e+02	9.97567122e-01
2.00500000e+02	9.97486218e-01
2.01500000e+02	9.97402933e-01
2.02500000e+02	9.97317210e-01
2.03500000e+02	9.97228992e-01
2.04500000e+02	9.97138221e-01
2.05500000e+02	9.97044838e-01
2.06500000e+02	9.96948784e-01
2.07500000e+02	9.96849999e-01
2.08500000e+02	9.96748420e-01
2.09500000e+02	9.96643987e-01
2.10500000e+02	9.96536637e-01
2.11500000e+02	9.96426307e-01
2.12500000e+02	9.96312933e-01
2.13500000e+02	9.96196451e-01
2.14500000e+02	9.96076794e-01
2.15500000e+02	9.95953898e-01
2.16500000e+02	9.95827695e-01
2.17500000e+02	9.95698120e-01
2.18500000e+02	9.95565103e-01
2.19500000e+02	9.95428577e-01
2.20500000e+02	9.95288473e-01
2.21500000e+02	9.95144722e-01
2.22500000e+02	9.94997253e-01
2.23500000e+02	9.94845997e-01
2.24500000e+02	9.94690882e-01
2.25500000e+02	9.94531837e-01
2.26500000e+02	9.94368791e-01
2.27500000e+02	9.94201672e-01
2.28500000e+02	9.94030407e-01
2.29500000e+02	9.93854923e-01
2.30500000e+02	9.93675147e-01
2.31500000e+02	9.93491006e-01
2.32500000e+02	9.93302426e-01
2.33500000e+02	9.93109332e-01
2.34500000e+02	9.92911652e-01
2.35500000e+02	9.92709310e-01
2.36500000e+02	9.92502231e-01
2.37500000e+02	9.92290342e-01
2.38500000e+02	9.92073566e-01
2.39500000e+02	9.91851830e-01
2.40500000e+02	9.91625058e-01
2.41500000e+02	9.91393175e-01
2.42500000e+02	9.91156106e-01
2.43500000e+02	9.90913775e-01
2.44500000e+02	9.90666108e-01
2.45500000e+02	9.90413029e-01
2.46500000e+02	9.90154463e-01
2.47500000e+02	9.89890336e-01
2.48500000e+02	9.89620572e-01
2.49500000e+02	9.89345097e-01
2.50500000e+02	9.89063836e-01
2.51500000e+02	9.88776715e-01
2.52500000e+02	9.88483659e-01
2.53500000e+02	9.88184594e-01
2.54500000e+02	9.87879447e-01
2.55500000e+02	9.87568143e-01
2.56500000e+02	9.87250610e-01
2.57500000e+02	9.86926775e-01
2.58500000e+02	9.86596563e-01
2.59500000e+02	9.86259904e-01
2.60500000e+02	9.85916723e-01
2.61500000e+02	9.85566951e-01
2.62500000e+02	9.85210514e-01
2.63500000e+02	9.84847341e-01
2.64500000e+02	9.84477361e-01
2.65500000e+02	9.84100504e-01
2.66500000e+02	9.83716698e-01
2.67500000e+02	9.83325874e-01
2.68500000e+02	9.82927961e-01
2.69500000e+02	9.82522891e-01
2.70500000e+02	9.82110592e-01
2.71500000e+02	9.81690998e-01
2.72500000e+02	9.81264038e-01
2.73500000e+02	9.80829643e-01
2.74500000e+02	9.80387747e-01
2.75500000e+02	9.79938280e-01
2.76500000e+02	9.79481174e-01
2.77500000e+02	9.79016361e-01
2.78500000e+02	9.78543775e-01
2.79500000e+02	9.78063347e-01
2.80500000e+02	9.77575009e-01
2.81500000e+02	9.77078694e-01
2.82500000e+02	9.76574336e-01
2.83500000e+02	9.76061865e-01
2.84500000e+02	9.75541214e-01
2.85500000e+02	9.75012317e-01
2.86500000e+02	9.74475104e-01
2.87500000e+02	9.73929508e-01
2.88500000e+02	9.73375460e-01
2.89500000e+02	9.72812891e-01
2.90500000e+02	9.72241733e-01
2.91500000e+02	9.71661916e-01
2.92500000e+02	9.71073370e-01
2.93500000e+02	9.70476024e-01
2.94500000e+02	9.69869807e-01
2.95500000e+02	9.69254646e-01
2.96500000e+02	9.68630470e-01
2.97500000e+02	9.67997204e-01
2.98500000e+02	9.67354774e-01
2.99500000e+02	9.66703105e-01
3.00500000e+02	9.66042119e-01
3.01500000e+02	9.65371738e-01
3.02500000e+02	9.64691885e-01
3.03500000e+02	9.64002477e-01
3.04500000e+02	9.63303433e-01
3.05500000e+02	9.62594669e-01
3.06500000e+02	9.61876100e-01
3.07500000e+02	9.61147639e-01
3.08500000e+02	9.60409197e-01
3.09500000e+02	9.59660683e-01
3.10500000e+02	9.58902003e-01
3.11500000e+02	9.58133064e-01
3.12500000e+02	9.57353765e-01
3.13500000e+02	9.56564009e-01
3.14500000e+02	9.55763692e-01
3.15500000e+02	9.54952709e-01
3.16500000e+02	9.54130951e-01
3.17500000e+02	9.53298307e-01
3.18500000e+02	9.52454663e-01
3.19500000e+02	9.51599902e-01
3.20500000e+02	9.50733903e-01
3.21500000e+02	9.49856542e-01
3.22500000e+02	9.48967690e-01
3.23500000e+02	9.48067216e-01
3.24500000e+02	9.47154984e-01
3.25500000e+02	9.46230855e-01
3.26500000e+02	9.45294684e-01
3.27500000e+02	9.44346325e-01
3.28500000e+02	9.43385624e-01
3.29500000e+02	9.42412423e-01
3.30500000e+02	9.41426562e-01
3.31500000e+02	9.40427873e-01
3.32500000e+02	9.39416183e-01
3.33500000e+02	9.38391317e-01
3.34500000e+02	9.37353091e-01
3.35500000e+02	9.36301317e-01
3.36500000e+02	9.35235802e-01
3.37500000e+02	9.34156345e-01
3.38500000e+02	9.33062743e-01
3.39500000e+02	9.31954783e-01
3.40500000e+02	9.30832247e-01
3.41500000e+02	9.29694912e-01
3.42500000e+02	9.28542546e-01
3.43500000e+02	9.27374913e-01
3.44500000e+02	9.26191768e-01
3.45500000e+02	9.24992861e-01
3.46500000e+02	9.23777933e-01
3.47500000e+02	9.22546719e-01
3.48500000e+02	9.21298947e-01
3.49500000e+02	9.20034337e-01
3.50500000e+02	9.18752600e-01
3.51500000e+02	9.17453443e-01
3.52500000e+02	9.16136563e-01
3.53500000e+02	9.14801647e-01
3.54500000e+02	9.13448379e-01
3.55500000e+02	9.12076431e-01
3.56500000e+02	9.10685468e-01
3.57500000e+02	9.09275148e-01
3.58500000e+02	9.07845119e-01
3.59500000e+02	9.06395021e-01
3.60500000e+02	9.04924487e-01
3.61500000e+02	9.03433141e-01
3.62500000e+02	9.01920597e-01
3.63500000e+02	9.00386462e-01
3.64500000e+02	8.98830336e-01
3.65500000e+02	8.97251807e-01
3.66500000e+02	8.95650458e-01
3.67500000e+02	8.94025861e-01
3.68500000e+02	8.92377582e-01
3.69500000e+02	8.90705176e-01
3.70500000e+02	8.89008192e-01
3.71500000e+02	8.87286170e-01
3.72500000e+02	8.85538642e-01
3.73500000e+02	8.83765133e-01
3.74500000e+02	8.81965157e-01
3.75500000e+02	8.80138225e-01
3.76500000e+02	8.78283838e-01
3.77500000e+02	8.76401489e-01
3.78500000e+02	8.74490665e-01
3.79500000e+02	8.72550847e-01
3.80500000e+02	8.70581508e-01
3.81500000e+02	8.68582114e-01
3.82500000e+02	8.66552128e-01
3.83500000e+02	8.64491005e-01
3.84500000e+02	8.62398194e-01
3.85500000e+02	8.60273141e-01
3.86500000e+02	8.58115286e-01
3.87500000e+02	8.55924066e-01
3.88500000e+02	8.53698912e-01
3.89500000e+02	8.51439254e-01
3.90500000e+02	8.49144517e-01
3.91500000e+02	8.46814127e-01
3.92500000e+02	8.44447504e-01
3.93500000e+02	8.42044070e-01
3.94500000e+02	8.39603244e-01
3.95500000e+02	8.37124446e-01
3.96500000e+02	8.34607097e-01
3.97500000e+02	8.32050619e-01
3.98500000e+02	8.29454435e-01
3.99500000e+02	8.26817972e-01
4.00500000e+02	8.24140658e-01
4.01500000e+02	8.21421927e-01
4.02500000e+02	8.18661218e-01
4.03500000e+02	8.15857975e-01
4.04500000e+02	8.13011649e-01
4.05500000e+02	8.10121697e-01
4.06500000e+02	8.07187587e-01
4.07500000e+02	8.04208792e-01
4.08500000e+02	8.01184800e-01
4.09500000e+02	7.98115106e-01
4.10500000e+02	7.94999218e-01
4.11500000e+02	7.91836660e-01
4.12500000e+02	7.88626964e-01
4.13500000e+02	7.85369684e-01
4.14500000e+02	7.82064384e-01
4.15500000e+02	7.78710648e-01
4.16500000e+02	7.75308078e-01
4.17500000e+02	7.71856295e-01
4.18500000e+02	7.68354939e-01
4.19500000e+02	7.64803675e-01
4.20500000e+02	7.61202186e-01
4.21500000e+02	7.57550181e-01
4.22500000e+02	7.53847395e-01
4.23500000e+02	7.50093585e-01
4.24500000e+02	7.46288538e-01
4.25500000e+02	7.42432069e-01
4.26500000e+02	7.38524021e-01
4.27500000e+02	7.34564267e-01
4.28500000e+02	7.30552713e-01
4.29500000e+02	7.26489297e-01
4.30500000e+02	7.22373989e-01
4.31500000e+02	7.18206795e-01
4.32500000e+02	7.13987758e-01
4.33500000e+02	7.09716954e-01
4.34500000e+02	7.05394499e-01
4.35500000e+02	7.01020550e-01
4.36500000e+02	6.96595299e-01
4.37500000e+02	6.92118983e-01
4.38500000e+02	6.87591877e-01
4.39500000e+02	6.83014301e-01
4.40500000e+02	6.78386617e-01
4.41500000e+02	6.73709233e-01
4.42500000e+02	6.68982600e-01
4.43500000e+02	6.64207216e-01
4.44500000e+02	6.59383627e-01
4.45500000e+02	6.54512423e-01
4.46500000e+02	6.49594245e-01
4.47500000e+02	6.44629782e-01
4.48500000e+02	6.39619772e-01
4.49500000e+02	6.34565004e-01
4.50500000e+02	6.29466318e-01
4.51500000e+02	6.24324604e-01
4.52500000e+02	6.19140805e-01
4.53500000e+02	6.13915916e-01
4.54500000e+02	6.08650986e-01
4.55500000e+02	6.03347115e-01
4.56500000e+02	5.98005460e-01
4.57500000e+02	5.92627232e-01
4.58500000e+02	5.87213694e-01
4.59500000e+02	5.81766167e-01
4.60500000e+02	5.76286028e-01
4.61500000e+02	5.70774708e-01
4.62500000e+02	5.65233696e-01
4.63500000e+02	5.59664537e-01
4.64500000e+02	5.54068834e-01
4.65500000e+02	5.48448246e-01
4.66500000e+02	5.42804489e-01
4.67500000e+02	5.37139338e-01
4.68500000e+02	5.31454625e-01
4.69500000e+02	5.25752239e-01
4.70500000e+02	5.20034126e-01
4.71500000e+02	5.14302291e-01
4.72500000e+02	5.08558793e-01
4.73500000e+02	5.02805748e-01
4.74500000e+02	4.97045330e-01
4.75500000e+02	4.91279764e-01
4.76500000e+02	4.85511330e-01
4.77500000e+02	4.79742361e-01
4.78500000e+02	4.73975238e-01
4.79500000e+02	4.68212393e-01
4.80500000e+02	4.62456303e-01
4.81500000e+02	4.56709491e-01
4.82500000e+02	4.50974518e-01
4.83500000e+02	4.45253985e-01
4.84500000e+02	4.39550528e-01
4.85500000e+02	4.33866809e-01
4.86500000e+02	4.28205521e-01
4.87500000e+02	4.22569374e-01
4.88500000e+02	4.16961096e-01
4.89500000e+02	4.11383422e-01
4.90500000e+02	4.05839092e-01
4.91500000e+02	4.00330844e-01
4.92500000e+02	3.94861405e-01
4.93500000e+02	3.89433483e-01
4.94500000e+02	3.84049764e-01
4.95500000e+02	3.78712900e-01
4.96500000e+02	3.73425500e-01
4.97500000e+02	3.68190125e-01
4.98500000e+02	3.63009280e-01
4.99500000e+02	3.57885400e-01
5.00500000e+02	3.52820848e-01
5.01500000e+02	3.47817902e-01
5.02500000e+02	3.42878751e-01
5.03500000e+02	3.38005482e-01
5.04500000e+02	3.33200077e-01
5.05500000e+02	3.28464405e-01
5.06500000e+02	3.23800214e-01
5.07500000e+02	3.19209126e-01
5.08500000e+02	3.14692632e-01
5.09500000e+02	3.10252086e-01
5.10500000e+02	3.05888703e-01
5.11500000e+02	3.01603555e-01
5.12500000e+02	2.97397571e-01
5.13500000e+02	2.93271531e-01
5.14500000e+02	2.89226070e-01
5.15500000e+02	2.85261676e-01
5.16500000e+02	2.81378695e-01
5.17500000e+02	2.77577326e-01
5.18500000e+02	2.73857631e-01
5.19500000e+02	2.70219535e-01
5.20500000e+02	2.66662832e-01
5.21500000e+02	2.63187187e-01
5.22500000e+02	2.59792145e-01
5.23500000e+02	2.56477135e-01
5.24500000e+02	2.53241479e-01
5.25500000e+02	2.50084395e-01
5.26500000e+02	2.47005006e-01
5.27500000e+02	2.44002347e-01
5.28500000e+02	2.41075375e-01
5.29500000e+02	2.38222971e-01
5.30500000e+02	2.35443954e-01
5.31500000e+02	2.32737082e-01
5.32500000e+02	2.30101066e-01
5.33500000e+02	2.27534572e-01
5.34500000e+02	2.25036231e-01
5.35500000e+02	2.22604643e-01
5.36500000e+02	2.20238389e-01
5.37500000e+02	2.17936030e-01
5.38500000e+02	2.15696120e-01
5.39500000e+02	2.13517206e-01
5.40500000e+02	2.11397839e-01
5.41500000e+02	2.09336572e-01
5.42500000e+02	2.07331973e-01
5.43500000e+02	2.05382622e-01
5.44500000e+02	2.03487119e-01
5.45500000e+02	2.01644086e-01
5.46500000e+02	1.99852172e-01
5.47500000e+02	1.98110053e-01
5.48500000e+02	1.96416439e-01
5.49500000e+02	1.94770071e-01
5.50500000e+02	1.93169728e-01
5.51500000e+02	1.91614224e-01
5.52500000e+02	1.90102415e-01
5.53500000e+02	1.88633192e-01
5.54500000e+02	1.87205490e-01
5.55500000e+02	1.85818283e-01
5.56500000e+02	1.84470586e-01
5.57500000e+02	1.83161456e-01
5.58500000e+02	1.81889989e-01
5.59500000e+02	1.80655319e-01
5.60500000e+02	1.79456623e-01
5.61500000e+02	1.78293110e-01
5.62500000e+02	1.77164030e-01
5.63500000e+02	1.76068665e-01
5.64500000e+02	1.75006328e-01
5.65500000e+02	1.73976365e-01
5.66500000e+02	1.72978150e-01
5.67500000e+02	1.72011083e-01
5.68500000e+02	1.71074586e-01
5.69500000e+02	1.70168103e-01
5.70500000e+02	1.69291096e-01
5.71500000e+02	1.68443045e-01
5.72500000e+02	1.67623440e-01
5.73500000e+02	1.66831782e-01
5.74500000e+02	1.66067581e-01
5.75500000e+02	1.65330351e-01
5.76500000e+02	1.64619610e-01
5.77500000e+02	1.63934876e-01
5.78500000e+02	1.63275665e-01
5.79500000e+02	1.62641490e-01
5.80500000e+02	1.62031859e-01
5.81500000e+02	1.61446272e-01
5.82500000e+02	1.60884225e-01
5.83500000e+02	1.60345199e-01
5.84500000e+02	1.59828672e-01
5.85500000e+02	1.59334107e-01
5.86500000e+02	1.58860960e-01
5.87500000e+02	1.58408676e-01
5.88500000e+02	1.57976690e-01
5.89500000e+02	1.57564429e-01
5.90500000e+02	1.57171310e-01
5.91500000e+02	1.56796746e-01
5.92500000e+02	1.56440141e-01
5.93500000e+02	1.56100896e-01
5.94500000e+02	1.55778408e-01
5.95500000e+02	1.55472074e-01
5.96500000e+02	1.55181289e-01
5.97500000e+02	1.54905452e-01
5.98500000e+02	1.54643962e-01
5.99500000e+02	1.54396227e-01
6.00500000e+02	1.54161658e-01
6.01500000e+02	1.53939678e-01
6.02500000e+02	1.53729716e-01
6.03500000e+02	1.53531214e-01
6.04500000e+02	1.53343626e-01
6.05500000e+02	1.53166420e-01
6.06500000e+02	1.52999078e-01
6.07500000e+02	1.52841097e-01
6.08500000e+02	1.52691989e-01
6.09500000e+02	1.52551287e-01
6.10500000e+02	1.52418535e-01
6.11500000e+02	1.52293300e-01
6.12500000e+02	1.52175165e-01
6.13500000e+02	1.52063728e-01
6.14500000e+02	1.51958609e-01
6.15500000e+02	1.51859444e-01
6.16500000e+02	1.51765886e-01
6.17500000e+02	1.51677606e-01
6.18500000e+02	1.51594293e-01
6.19500000e+02	1.51515650e-01
6.20500000e+02	1.51441397e-01
6.21500000e+02	1.51371271e-01
6.22500000e+02	1.51305023e-01
6.23500000e+02	1.51242418e-01
6.24500000e+02	1.51183235e-01
6.25500000e+02	1.51127267e-01
6.26500000e+02	1.51074318e-01
6.27500000e+02	1.51024206e-01
6.28500000e+02	1.50976759e-01
6.29500000e+02	1.50931816e-01
6.30500000e+02	1.50889227e-01
6.31500000e+02	1.50848851e-01
6.32500000e+02	1.50810555e-01
6.33500000e+02	1.50774216e-01
6.34500000e+02	1.50739720e-01
6.35500000e+02	1.50706957e-01
6.36500000e+02	1.50675827e-01
6.37500000e+02	1.50646237e-01
6.38500000e+02	1.50618096e-01
6.39500000e+02	1.50591324e-01
6.40500000e+02	1.50565843e-01
6.41500000e+02	1.50541580e-01
6.42500000e+02	1.50518469e-01
6.43500000e+02	1.50496447e-01
6.44500000e+02	1.50475454e-01
6.45500000e+02	1.50455435e-01
6.46500000e+02	1.50436338e-01
6.47500000e+02	1.50418114e-01
6.48500000e+02	1.50400719e-01
6.49500000e+02	1.50384109e-01
6.50500000e+02	1.50368245e-01
6.51500000e+02	1.50353088e-01
6.52500000e+02	1.50338604e-01
6.53500000e+02	1.50324759e-01
6.54500000e+02	1.50311522e-01
6.55500000e+02	1.50298863e-01
6.56500000e+02	1.50286755e-01
6.57500000e+02	1.50275173e-01
6.58500000e+02	1.50264090e-01
6.59500000e+02	1.50253485e-01
6.60500000e+02	1.50243335e-01
