# Profil de Te au temps 1.400000000000019e-11 
# simu : /Volumes/MERCURE/JOBS/Zeq2_tanh_50mic_1p5e20_B0_20ps/GNU/Te@y-c.set
# col 0 : abscisse (um)
# col 1 : Te (keV)
5.00000000e-01	9.93520878e-01
1.50000000e+00	9.93519313e-01
2.50000000e+00	9.93516215e-01
3.50000000e+00	9.93511566e-01
4.50000000e+00	9.93505361e-01
5.50000000e+00	9.93497605e-01
6.50000000e+00	9.93488299e-01
7.50000000e+00	9.93477443e-01
8.50000000e+00	9.93465037e-01
9.50000000e+00	9.93451084e-01
1.05000000e+01	9.93435582e-01
1.15000000e+01	9.93418533e-01
1.25000000e+01	9.93399938e-01
1.35000000e+01	9.93379798e-01
1.45000000e+01	9.93358113e-01
1.55000000e+01	9.93334885e-01
1.65000000e+01	9.93310115e-01
1.75000000e+01	9.93283804e-01
1.85000000e+01	9.93255954e-01
1.95000000e+01	9.93226565e-01
2.05000000e+01	9.93195639e-01
2.15000000e+01	9.93163179e-01
2.25000000e+01	9.93129184e-01
2.35000000e+01	9.93093658e-01
2.45000000e+01	9.93056601e-01
2.55000000e+01	9.93018016e-01
2.65000000e+01	9.92977904e-01
2.75000000e+01	9.92936268e-01
2.85000000e+01	9.92893109e-01
2.95000000e+01	9.92848429e-01
3.05000000e+01	9.92802231e-01
3.15000000e+01	9.92754517e-01
3.25000000e+01	9.92705289e-01
3.35000000e+01	9.92654549e-01
3.45000000e+01	9.92602301e-01
3.55000000e+01	9.92548545e-01
3.65000000e+01	9.92493286e-01
3.75000000e+01	9.92436525e-01
3.85000000e+01	9.92378265e-01
3.95000000e+01	9.92318509e-01
4.05000000e+01	9.92257260e-01
4.15000000e+01	9.92194520e-01
4.25000000e+01	9.92130293e-01
4.35000000e+01	9.92064581e-01
4.45000000e+01	9.91997388e-01
4.55000000e+01	9.91928716e-01
4.65000000e+01	9.91858568e-01
4.75000000e+01	9.91786948e-01
4.85000000e+01	9.91713860e-01
4.95000000e+01	9.91639305e-01
5.05000000e+01	9.91563289e-01
5.15000000e+01	9.91485813e-01
5.25000000e+01	9.91406881e-01
5.35000000e+01	9.91326498e-01
5.45000000e+01	9.91244665e-01
5.55000000e+01	9.91161388e-01
5.65000000e+01	9.91076669e-01
5.75000000e+01	9.90990512e-01
5.85000000e+01	9.90902921e-01
5.95000000e+01	9.90813900e-01
6.05000000e+01	9.90723452e-01
6.15000000e+01	9.90631580e-01
6.25000000e+01	9.90538290e-01
6.35000000e+01	9.90443584e-01
6.45000000e+01	9.90347467e-01
6.55000000e+01	9.90249942e-01
6.65000000e+01	9.90151013e-01
6.75000000e+01	9.90050684e-01
6.85000000e+01	9.89948960e-01
6.95000000e+01	9.89845844e-01
7.05000000e+01	9.89741340e-01
7.15000000e+01	9.89635452e-01
7.25000000e+01	9.89528185e-01
7.35000000e+01	9.89419541e-01
7.45000000e+01	9.89309526e-01
7.55000000e+01	9.89198143e-01
7.65000000e+01	9.89085396e-01
7.75000000e+01	9.88971290e-01
7.85000000e+01	9.88855829e-01
7.95000000e+01	9.88739016e-01
8.05000000e+01	9.88620855e-01
8.15000000e+01	9.88501351e-01
8.25000000e+01	9.88380508e-01
8.35000000e+01	9.88258330e-01
8.45000000e+01	9.88134820e-01
8.55000000e+01	9.88009983e-01
8.65000000e+01	9.87883823e-01
8.75000000e+01	9.87756343e-01
8.85000000e+01	9.87627549e-01
8.95000000e+01	9.87497443e-01
9.05000000e+01	9.87366029e-01
9.15000000e+01	9.87233311e-01
9.25000000e+01	9.87099294e-01
9.35000000e+01	9.86963981e-01
9.45000000e+01	9.86827376e-01
9.55000000e+01	9.86689482e-01
9.65000000e+01	9.86550303e-01
9.75000000e+01	9.86409843e-01
9.85000000e+01	9.86268105e-01
9.95000000e+01	9.86125093e-01
1.00500000e+02	9.85980811e-01
1.01500000e+02	9.85835261e-01
1.02500000e+02	9.85688448e-01
1.03500000e+02	9.85540374e-01
1.04500000e+02	9.85391042e-01
1.05500000e+02	9.85240456e-01
1.06500000e+02	9.85088620e-01
1.07500000e+02	9.84935535e-01
1.08500000e+02	9.84781205e-01
1.09500000e+02	9.84625632e-01
1.10500000e+02	9.84468820e-01
1.11500000e+02	9.84310771e-01
1.12500000e+02	9.84151487e-01
1.13500000e+02	9.83990972e-01
1.14500000e+02	9.83829227e-01
1.15500000e+02	9.83666255e-01
1.16500000e+02	9.83502058e-01
1.17500000e+02	9.83336638e-01
1.18500000e+02	9.83169996e-01
1.19500000e+02	9.83002135e-01
1.20500000e+02	9.82833057e-01
1.21500000e+02	9.82662763e-01
1.22500000e+02	9.82491254e-01
1.23500000e+02	9.82318532e-01
1.24500000e+02	9.82144597e-01
1.25500000e+02	9.81969452e-01
1.26500000e+02	9.81793097e-01
1.27500000e+02	9.81615532e-01
1.28500000e+02	9.81436758e-01
1.29500000e+02	9.81256775e-01
1.30500000e+02	9.81075585e-01
1.31500000e+02	9.80893187e-01
1.32500000e+02	9.80709580e-01
1.33500000e+02	9.80524765e-01
1.34500000e+02	9.80338741e-01
1.35500000e+02	9.80151508e-01
1.36500000e+02	9.79963065e-01
1.37500000e+02	9.79773411e-01
1.38500000e+02	9.79582544e-01
1.39500000e+02	9.79390464e-01
1.40500000e+02	9.79197168e-01
1.41500000e+02	9.79002656e-01
1.42500000e+02	9.78806925e-01
1.43500000e+02	9.78609972e-01
1.44500000e+02	9.78411796e-01
1.45500000e+02	9.78212394e-01
1.46500000e+02	9.78011763e-01
1.47500000e+02	9.77809900e-01
1.48500000e+02	9.77606801e-01
1.49500000e+02	9.77402463e-01
1.50500000e+02	9.77196883e-01
1.51500000e+02	9.76990055e-01
1.52500000e+02	9.76781976e-01
1.53500000e+02	9.76572641e-01
1.54500000e+02	9.76362045e-01
1.55500000e+02	9.76150184e-01
1.56500000e+02	9.75937051e-01
1.57500000e+02	9.75722641e-01
1.58500000e+02	9.75506949e-01
1.59500000e+02	9.75289967e-01
1.60500000e+02	9.75071690e-01
1.61500000e+02	9.74852109e-01
1.62500000e+02	9.74631220e-01
1.63500000e+02	9.74409013e-01
1.64500000e+02	9.74185481e-01
1.65500000e+02	9.73960616e-01
1.66500000e+02	9.73734409e-01
1.67500000e+02	9.73506853e-01
1.68500000e+02	9.73277937e-01
1.69500000e+02	9.73047652e-01
1.70500000e+02	9.72815989e-01
1.71500000e+02	9.72582938e-01
1.72500000e+02	9.72348487e-01
1.73500000e+02	9.72112627e-01
1.74500000e+02	9.71875346e-01
1.75500000e+02	9.71636633e-01
1.76500000e+02	9.71396475e-01
1.77500000e+02	9.71154861e-01
1.78500000e+02	9.70911777e-01
1.79500000e+02	9.70667211e-01
1.80500000e+02	9.70421150e-01
1.81500000e+02	9.70173579e-01
1.82500000e+02	9.69924484e-01
1.83500000e+02	9.69673850e-01
1.84500000e+02	9.69421664e-01
1.85500000e+02	9.69167908e-01
1.86500000e+02	9.68912568e-01
1.87500000e+02	9.68655627e-01
1.88500000e+02	9.68397068e-01
1.89500000e+02	9.68136874e-01
1.90500000e+02	9.67875028e-01
1.91500000e+02	9.67611511e-01
1.92500000e+02	9.67346306e-01
1.93500000e+02	9.67079392e-01
1.94500000e+02	9.66810752e-01
1.95500000e+02	9.66540364e-01
1.96500000e+02	9.66268208e-01
1.97500000e+02	9.65994265e-01
1.98500000e+02	9.65718512e-01
1.99500000e+02	9.65440928e-01
2.00500000e+02	9.65161490e-01
2.01500000e+02	9.64880177e-01
2.02500000e+02	9.64596964e-01
2.03500000e+02	9.64311828e-01
2.04500000e+02	9.64024745e-01
2.05500000e+02	9.63735691e-01
2.06500000e+02	9.63444639e-01
2.07500000e+02	9.63151564e-01
2.08500000e+02	9.62856441e-01
2.09500000e+02	9.62559242e-01
2.10500000e+02	9.62259939e-01
2.11500000e+02	9.61958506e-01
2.12500000e+02	9.61654914e-01
2.13500000e+02	9.61349133e-01
2.14500000e+02	9.61041135e-01
2.15500000e+02	9.60730889e-01
2.16500000e+02	9.60418364e-01
2.17500000e+02	9.60103531e-01
2.18500000e+02	9.59786356e-01
2.19500000e+02	9.59466808e-01
2.20500000e+02	9.59144855e-01
2.21500000e+02	9.58820461e-01
2.22500000e+02	9.58493595e-01
2.23500000e+02	9.58164220e-01
2.24500000e+02	9.57832302e-01
2.25500000e+02	9.57497805e-01
2.26500000e+02	9.57160693e-01
2.27500000e+02	9.56820929e-01
2.28500000e+02	9.56478476e-01
2.29500000e+02	9.56133294e-01
2.30500000e+02	9.55785346e-01
2.31500000e+02	9.55434592e-01
2.32500000e+02	9.55080992e-01
2.33500000e+02	9.54724505e-01
2.34500000e+02	9.54365091e-01
2.35500000e+02	9.54002707e-01
2.36500000e+02	9.53637310e-01
2.37500000e+02	9.53268858e-01
2.38500000e+02	9.52897306e-01
2.39500000e+02	9.52522610e-01
2.40500000e+02	9.52144724e-01
2.41500000e+02	9.51763603e-01
2.42500000e+02	9.51379200e-01
2.43500000e+02	9.50991468e-01
2.44500000e+02	9.50600359e-01
2.45500000e+02	9.50205824e-01
2.46500000e+02	9.49807814e-01
2.47500000e+02	9.49406279e-01
2.48500000e+02	9.49001168e-01
2.49500000e+02	9.48592429e-01
2.50500000e+02	9.48180011e-01
2.51500000e+02	9.47763860e-01
2.52500000e+02	9.47343922e-01
2.53500000e+02	9.46920144e-01
2.54500000e+02	9.46492469e-01
2.55500000e+02	9.46060843e-01
2.56500000e+02	9.45625207e-01
2.57500000e+02	9.45185506e-01
2.58500000e+02	9.44741680e-01
2.59500000e+02	9.44293670e-01
2.60500000e+02	9.43841416e-01
2.61500000e+02	9.43384858e-01
2.62500000e+02	9.42923934e-01
2.63500000e+02	9.42458582e-01
2.64500000e+02	9.41988738e-01
2.65500000e+02	9.41514338e-01
2.66500000e+02	9.41035318e-01
2.67500000e+02	9.40551611e-01
2.68500000e+02	9.40063151e-01
2.69500000e+02	9.39569870e-01
2.70500000e+02	9.39071700e-01
2.71500000e+02	9.38568572e-01
2.72500000e+02	9.38060415e-01
2.73500000e+02	9.37547157e-01
2.74500000e+02	9.37028727e-01
2.75500000e+02	9.36505052e-01
2.76500000e+02	9.35976057e-01
2.77500000e+02	9.35441667e-01
2.78500000e+02	9.34901806e-01
2.79500000e+02	9.34356397e-01
2.80500000e+02	9.33805362e-01
2.81500000e+02	9.33248622e-01
2.82500000e+02	9.32686097e-01
2.83500000e+02	9.32117704e-01
2.84500000e+02	9.31543363e-01
2.85500000e+02	9.30962989e-01
2.86500000e+02	9.30376498e-01
2.87500000e+02	9.29783805e-01
2.88500000e+02	9.29184822e-01
2.89500000e+02	9.28579462e-01
2.90500000e+02	9.27967636e-01
2.91500000e+02	9.27349253e-01
2.92500000e+02	9.26724222e-01
2.93500000e+02	9.26092451e-01
2.94500000e+02	9.25453846e-01
2.95500000e+02	9.24808311e-01
2.96500000e+02	9.24155750e-01
2.97500000e+02	9.23496066e-01
2.98500000e+02	9.22829161e-01
2.99500000e+02	9.22154933e-01
3.00500000e+02	9.21473281e-01
3.01500000e+02	9.20784104e-01
3.02500000e+02	9.20087296e-01
3.03500000e+02	9.19382752e-01
3.04500000e+02	9.18670366e-01
3.05500000e+02	9.17950029e-01
3.06500000e+02	9.17221632e-01
3.07500000e+02	9.16485063e-01
3.08500000e+02	9.15740211e-01
3.09500000e+02	9.14986962e-01
3.10500000e+02	9.14225199e-01
3.11500000e+02	9.13454807e-01
3.12500000e+02	9.12675668e-01
3.13500000e+02	9.11887660e-01
3.14500000e+02	9.11090664e-01
3.15500000e+02	9.10284557e-01
3.16500000e+02	9.09469213e-01
3.17500000e+02	9.08644508e-01
3.18500000e+02	9.07810313e-01
3.19500000e+02	9.06966500e-01
3.20500000e+02	9.06112938e-01
3.21500000e+02	9.05249495e-01
3.22500000e+02	9.04376036e-01
3.23500000e+02	9.03492428e-01
3.24500000e+02	9.02598531e-01
3.25500000e+02	9.01694209e-01
3.26500000e+02	9.00779319e-01
3.27500000e+02	8.99853721e-01
3.28500000e+02	8.98917270e-01
3.29500000e+02	8.97969821e-01
3.30500000e+02	8.97011227e-01
3.31500000e+02	8.96041339e-01
3.32500000e+02	8.95060007e-01
3.33500000e+02	8.94067078e-01
3.34500000e+02	8.93062398e-01
3.35500000e+02	8.92045813e-01
3.36500000e+02	8.91017163e-01
3.37500000e+02	8.89976292e-01
3.38500000e+02	8.88923037e-01
3.39500000e+02	8.87857236e-01
3.40500000e+02	8.86778726e-01
3.41500000e+02	8.85687340e-01
3.42500000e+02	8.84582910e-01
3.43500000e+02	8.83465268e-01
3.44500000e+02	8.82334242e-01
3.45500000e+02	8.81189661e-01
3.46500000e+02	8.80031349e-01
3.47500000e+02	8.78859130e-01
3.48500000e+02	8.77672827e-01
3.49500000e+02	8.76472262e-01
3.50500000e+02	8.75257252e-01
3.51500000e+02	8.74027615e-01
3.52500000e+02	8.72783168e-01
3.53500000e+02	8.71523725e-01
3.54500000e+02	8.70249099e-01
3.55500000e+02	8.68959101e-01
3.56500000e+02	8.67653541e-01
3.57500000e+02	8.66332228e-01
3.58500000e+02	8.64994968e-01
3.59500000e+02	8.63641567e-01
3.60500000e+02	8.62271829e-01
3.61500000e+02	8.60885558e-01
3.62500000e+02	8.59482555e-01
3.63500000e+02	8.58062620e-01
3.64500000e+02	8.56625553e-01
3.65500000e+02	8.55171152e-01
3.66500000e+02	8.53699213e-01
3.67500000e+02	8.52209532e-01
3.68500000e+02	8.50701905e-01
3.69500000e+02	8.49176125e-01
3.70500000e+02	8.47631986e-01
3.71500000e+02	8.46069279e-01
3.72500000e+02	8.44487797e-01
3.73500000e+02	8.42887329e-01
3.74500000e+02	8.41267666e-01
3.75500000e+02	8.39628598e-01
3.76500000e+02	8.37969914e-01
3.77500000e+02	8.36291402e-01
3.78500000e+02	8.34592851e-01
3.79500000e+02	8.32874049e-01
3.80500000e+02	8.31134784e-01
3.81500000e+02	8.29374844e-01
3.82500000e+02	8.27594016e-01
3.83500000e+02	8.25792090e-01
3.84500000e+02	8.23968853e-01
3.85500000e+02	8.22124094e-01
3.86500000e+02	8.20257602e-01
3.87500000e+02	8.18369167e-01
3.88500000e+02	8.16458579e-01
3.89500000e+02	8.14525628e-01
3.90500000e+02	8.12570108e-01
3.91500000e+02	8.10591811e-01
3.92500000e+02	8.08590530e-01
3.93500000e+02	8.06566062e-01
3.94500000e+02	8.04518203e-01
3.95500000e+02	8.02446751e-01
3.96500000e+02	8.00351506e-01
3.97500000e+02	7.98232270e-01
3.98500000e+02	7.96088847e-01
3.99500000e+02	7.93921042e-01
4.00500000e+02	7.91728662e-01
4.01500000e+02	7.89511519e-01
4.02500000e+02	7.87269425e-01
4.03500000e+02	7.85002196e-01
4.04500000e+02	7.82709650e-01
4.05500000e+02	7.80391607e-01
4.06500000e+02	7.78047894e-01
4.07500000e+02	7.75678337e-01
4.08500000e+02	7.73282767e-01
4.09500000e+02	7.70861020e-01
4.10500000e+02	7.68412935e-01
4.11500000e+02	7.65938353e-01
4.12500000e+02	7.63437123e-01
4.13500000e+02	7.60909094e-01
4.14500000e+02	7.58354124e-01
4.15500000e+02	7.55772071e-01
4.16500000e+02	7.53162802e-01
4.17500000e+02	7.50526187e-01
4.18500000e+02	7.47862102e-01
4.19500000e+02	7.45170427e-01
4.20500000e+02	7.42451048e-01
4.21500000e+02	7.39703859e-01
4.22500000e+02	7.36928757e-01
4.23500000e+02	7.34125648e-01
4.24500000e+02	7.31294441e-01
4.25500000e+02	7.28435053e-01
4.26500000e+02	7.25547410e-01
4.27500000e+02	7.22631441e-01
4.28500000e+02	7.19687085e-01
4.29500000e+02	7.16714287e-01
4.30500000e+02	7.13712999e-01
4.31500000e+02	7.10683181e-01
4.32500000e+02	7.07624803e-01
4.33500000e+02	7.04537839e-01
4.34500000e+02	7.01422275e-01
4.35500000e+02	6.98278103e-01
4.36500000e+02	6.95105325e-01
4.37500000e+02	6.91903950e-01
4.38500000e+02	6.88673998e-01
4.39500000e+02	6.85415498e-01
4.40500000e+02	6.82128488e-01
4.41500000e+02	6.78813014e-01
4.42500000e+02	6.75469135e-01
4.43500000e+02	6.72096918e-01
4.44500000e+02	6.68696440e-01
4.45500000e+02	6.65267790e-01
4.46500000e+02	6.61811068e-01
4.47500000e+02	6.58326382e-01
4.48500000e+02	6.54813855e-01
4.49500000e+02	6.51273619e-01
4.50500000e+02	6.47705818e-01
4.51500000e+02	6.44110610e-01
4.52500000e+02	6.40488163e-01
4.53500000e+02	6.36838658e-01
4.54500000e+02	6.33162291e-01
4.55500000e+02	6.29459267e-01
4.56500000e+02	6.25729809e-01
4.57500000e+02	6.21974152e-01
4.58500000e+02	6.18192544e-01
4.59500000e+02	6.14385249e-01
4.60500000e+02	6.10552546e-01
4.61500000e+02	6.06694729e-01
4.62500000e+02	6.02812108e-01
4.63500000e+02	5.98905008e-01
4.64500000e+02	5.94973773e-01
4.65500000e+02	5.91018762e-01
4.66500000e+02	5.87040352e-01
4.67500000e+02	5.83038939e-01
4.68500000e+02	5.79014937e-01
4.69500000e+02	5.74968778e-01
4.70500000e+02	5.70900917e-01
4.71500000e+02	5.66811825e-01
4.72500000e+02	5.62701997e-01
4.73500000e+02	5.58571949e-01
4.74500000e+02	5.54422217e-01
4.75500000e+02	5.50253363e-01
4.76500000e+02	5.46065969e-01
4.77500000e+02	5.41860645e-01
4.78500000e+02	5.37638021e-01
4.79500000e+02	5.33398756e-01
4.80500000e+02	5.29143535e-01
4.81500000e+02	5.24873067e-01
4.82500000e+02	5.20588091e-01
4.83500000e+02	5.16289373e-01
4.84500000e+02	5.11977708e-01
4.85500000e+02	5.07653921e-01
4.86500000e+02	5.03318866e-01
4.87500000e+02	4.98973429e-01
4.88500000e+02	4.94618525e-01
4.89500000e+02	4.90255104e-01
4.90500000e+02	4.85884144e-01
4.91500000e+02	4.81506660e-01
4.92500000e+02	4.77123698e-01
4.93500000e+02	4.72736336e-01
4.94500000e+02	4.68345687e-01
4.95500000e+02	4.63952898e-01
4.96500000e+02	4.59559149e-01
4.97500000e+02	4.55165652e-01
4.98500000e+02	4.50773655e-01
4.99500000e+02	4.46384437e-01
5.00500000e+02	4.41999311e-01
5.01500000e+02	4.37619619e-01
5.02500000e+02	4.33246737e-01
5.03500000e+02	4.28882070e-01
5.04500000e+02	4.24527050e-01
5.05500000e+02	4.20183140e-01
5.06500000e+02	4.15851825e-01
5.07500000e+02	4.11534617e-01
5.08500000e+02	4.07233048e-01
5.09500000e+02	4.02948673e-01
5.10500000e+02	3.98683060e-01
5.11500000e+02	3.94437797e-01
5.12500000e+02	3.90214480e-01
5.13500000e+02	3.86014716e-01
5.14500000e+02	3.81840117e-01
5.15500000e+02	3.77692298e-01
5.16500000e+02	3.73572871e-01
5.17500000e+02	3.69483444e-01
5.18500000e+02	3.65425617e-01
5.19500000e+02	3.61400973e-01
5.20500000e+02	3.57411081e-01
5.21500000e+02	3.53457486e-01
5.22500000e+02	3.49541707e-01
5.23500000e+02	3.45665232e-01
5.24500000e+02	3.41829513e-01
5.25500000e+02	3.38035963e-01
5.26500000e+02	3.34285951e-01
5.27500000e+02	3.30580797e-01
5.28500000e+02	3.26921769e-01
5.29500000e+02	3.23310076e-01
5.30500000e+02	3.19746869e-01
5.31500000e+02	3.16233234e-01
5.32500000e+02	3.12770189e-01
5.33500000e+02	3.09358683e-01
5.34500000e+02	3.05999591e-01
5.35500000e+02	3.02693713e-01
5.36500000e+02	2.99441769e-01
5.37500000e+02	2.96244405e-01
5.38500000e+02	2.93102181e-01
5.39500000e+02	2.90015581e-01
5.40500000e+02	2.86985004e-01
5.41500000e+02	2.84010768e-01
5.42500000e+02	2.81093112e-01
5.43500000e+02	2.78232192e-01
5.44500000e+02	2.75428087e-01
5.45500000e+02	2.72680796e-01
5.46500000e+02	2.69990245e-01
5.47500000e+02	2.67356284e-01
5.48500000e+02	2.64778694e-01
5.49500000e+02	2.62257185e-01
5.50500000e+02	2.59791405e-01
5.51500000e+02	2.57380936e-01
5.52500000e+02	2.55025303e-01
5.53500000e+02	2.52723976e-01
5.54500000e+02	2.50476373e-01
5.55500000e+02	2.48281862e-01
5.56500000e+02	2.46139769e-01
5.57500000e+02	2.44049377e-01
5.58500000e+02	2.42009933e-01
5.59500000e+02	2.40020651e-01
5.60500000e+02	2.38080714e-01
5.61500000e+02	2.36189280e-01
5.62500000e+02	2.34345484e-01
5.63500000e+02	2.32548440e-01
5.64500000e+02	2.30797248e-01
5.65500000e+02	2.29090993e-01
5.66500000e+02	2.27428752e-01
5.67500000e+02	2.25809591e-01
5.68500000e+02	2.24232576e-01
5.69500000e+02	2.22696766e-01
5.70500000e+02	2.21201222e-01
5.71500000e+02	2.19745009e-01
5.72500000e+02	2.18327193e-01
5.73500000e+02	2.16946847e-01
5.74500000e+02	2.15603052e-01
5.75500000e+02	2.14294899e-01
5.76500000e+02	2.13021486e-01
5.77500000e+02	2.11781926e-01
5.78500000e+02	2.10575345e-01
5.79500000e+02	2.09400879e-01
5.80500000e+02	2.08257683e-01
5.81500000e+02	2.07144925e-01
5.82500000e+02	2.06061788e-01
5.83500000e+02	2.05007474e-01
5.84500000e+02	2.03981199e-01
5.85500000e+02	2.02982199e-01
5.86500000e+02	2.02009725e-01
5.87500000e+02	2.01063047e-01
5.88500000e+02	2.00141452e-01
5.89500000e+02	1.99244246e-01
5.90500000e+02	1.98370750e-01
5.91500000e+02	1.97520306e-01
5.92500000e+02	1.96692272e-01
5.93500000e+02	1.95886022e-01
5.94500000e+02	1.95100950e-01
5.95500000e+02	1.94336465e-01
5.96500000e+02	1.93591995e-01
5.97500000e+02	1.92866981e-01
5.98500000e+02	1.92160884e-01
5.99500000e+02	1.91473178e-01
6.00500000e+02	1.90803354e-01
6.01500000e+02	1.90150920e-01
6.02500000e+02	1.89515395e-01
6.03500000e+02	1.88896315e-01
6.04500000e+02	1.88293232e-01
6.05500000e+02	1.87705707e-01
6.06500000e+02	1.87133320e-01
6.07500000e+02	1.86575660e-01
6.08500000e+02	1.86032331e-01
6.09500000e+02	1.85502949e-01
6.10500000e+02	1.84987141e-01
6.11500000e+02	1.84484548e-01
6.12500000e+02	1.83994821e-01
6.13500000e+02	1.83517621e-01
6.14500000e+02	1.83052622e-01
6.15500000e+02	1.82599507e-01
6.16500000e+02	1.82157969e-01
6.17500000e+02	1.81727711e-01
6.18500000e+02	1.81308445e-01
6.19500000e+02	1.80899894e-01
6.20500000e+02	1.80501787e-01
6.21500000e+02	1.80113864e-01
6.22500000e+02	1.79735871e-01
6.23500000e+02	1.79367564e-01
6.24500000e+02	1.79008705e-01
6.25500000e+02	1.78659064e-01
6.26500000e+02	1.78318419e-01
6.27500000e+02	1.77986554e-01
6.28500000e+02	1.77663259e-01
6.29500000e+02	1.77348333e-01
6.30500000e+02	1.77041579e-01
6.31500000e+02	1.76742806e-01
6.32500000e+02	1.76451830e-01
6.33500000e+02	1.76168471e-01
6.34500000e+02	1.75892557e-01
6.35500000e+02	1.75623918e-01
6.36500000e+02	1.75362391e-01
6.37500000e+02	1.75107818e-01
6.38500000e+02	1.74860044e-01
6.39500000e+02	1.74618921e-01
6.40500000e+02	1.74384303e-01
6.41500000e+02	1.74156050e-01
6.42500000e+02	1.73934024e-01
6.43500000e+02	1.73718093e-01
6.44500000e+02	1.73508127e-01
6.45500000e+02	1.73304002e-01
6.46500000e+02	1.73105594e-01
6.47500000e+02	1.72912786e-01
6.48500000e+02	1.72725463e-01
6.49500000e+02	1.72543512e-01
6.50500000e+02	1.72366824e-01
6.51500000e+02	1.72195293e-01
6.52500000e+02	1.72028817e-01
6.53500000e+02	1.71867295e-01
6.54500000e+02	1.71710629e-01
6.55500000e+02	1.71558725e-01
6.56500000e+02	1.71411491e-01
6.57500000e+02	1.71268836e-01
6.58500000e+02	1.71130674e-01
6.59500000e+02	1.70996920e-01
6.60500000e+02	1.70867490e-01
