# Profil de Te au temps 9.000000000000108e-12 
# simu : /Volumes/MERCURE/JOBS/Zeq2_tanh_50mic_1p5e20_B0_20ps/GNU/Te@y-c.set
# col 0 : abscisse (um)
# col 1 : Te (keV)
5.00000000e-01	9.99900266e-01
1.50000000e+00	9.99900131e-01
2.50000000e+00	9.99899868e-01
3.50000000e+00	9.99899473e-01
4.50000000e+00	9.99898944e-01
5.50000000e+00	9.99898281e-01
6.50000000e+00	9.99897484e-01
7.50000000e+00	9.99896552e-01
8.50000000e+00	9.99895484e-01
9.50000000e+00	9.99894280e-01
1.05000000e+01	9.99892937e-01
1.15000000e+01	9.99891455e-01
1.25000000e+01	9.99889832e-01
1.35000000e+01	9.99888067e-01
1.45000000e+01	9.99886157e-01
1.55000000e+01	9.99884102e-01
1.65000000e+01	9.99881898e-01
1.75000000e+01	9.99879543e-01
1.85000000e+01	9.99877036e-01
1.95000000e+01	9.99874374e-01
2.05000000e+01	9.99871554e-01
2.15000000e+01	9.99868573e-01
2.25000000e+01	9.99865428e-01
2.35000000e+01	9.99862117e-01
2.45000000e+01	9.99858636e-01
2.55000000e+01	9.99854982e-01
2.65000000e+01	9.99851151e-01
2.75000000e+01	9.99847139e-01
2.85000000e+01	9.99842944e-01
2.95000000e+01	9.99838560e-01
3.05000000e+01	9.99833983e-01
3.15000000e+01	9.99829210e-01
3.25000000e+01	9.99824236e-01
3.35000000e+01	9.99819055e-01
3.45000000e+01	9.99813664e-01
3.55000000e+01	9.99808058e-01
3.65000000e+01	9.99802230e-01
3.75000000e+01	9.99796176e-01
3.85000000e+01	9.99789891e-01
3.95000000e+01	9.99783368e-01
4.05000000e+01	9.99776602e-01
4.15000000e+01	9.99769587e-01
4.25000000e+01	9.99762316e-01
4.35000000e+01	9.99754784e-01
4.45000000e+01	9.99746983e-01
4.55000000e+01	9.99738907e-01
4.65000000e+01	9.99730548e-01
4.75000000e+01	9.99721901e-01
4.85000000e+01	9.99712956e-01
4.95000000e+01	9.99703708e-01
5.05000000e+01	9.99694147e-01
5.15000000e+01	9.99684266e-01
5.25000000e+01	9.99674058e-01
5.35000000e+01	9.99663513e-01
5.45000000e+01	9.99652623e-01
5.55000000e+01	9.99641379e-01
5.65000000e+01	9.99629772e-01
5.75000000e+01	9.99617794e-01
5.85000000e+01	9.99605434e-01
5.95000000e+01	9.99592683e-01
6.05000000e+01	9.99579532e-01
6.15000000e+01	9.99565969e-01
6.25000000e+01	9.99551986e-01
6.35000000e+01	9.99537571e-01
6.45000000e+01	9.99522713e-01
6.55000000e+01	9.99507402e-01
6.65000000e+01	9.99491627e-01
6.75000000e+01	9.99475376e-01
6.85000000e+01	9.99458637e-01
6.95000000e+01	9.99441399e-01
7.05000000e+01	9.99423649e-01
7.15000000e+01	9.99405375e-01
7.25000000e+01	9.99386565e-01
7.35000000e+01	9.99367206e-01
7.45000000e+01	9.99347284e-01
7.55000000e+01	9.99326787e-01
7.65000000e+01	9.99305700e-01
7.75000000e+01	9.99284011e-01
7.85000000e+01	9.99261705e-01
7.95000000e+01	9.99238768e-01
8.05000000e+01	9.99215185e-01
8.15000000e+01	9.99190942e-01
8.25000000e+01	9.99166023e-01
8.35000000e+01	9.99140414e-01
8.45000000e+01	9.99114099e-01
8.55000000e+01	9.99087063e-01
8.65000000e+01	9.99059288e-01
8.75000000e+01	9.99030760e-01
8.85000000e+01	9.99001462e-01
8.95000000e+01	9.98971377e-01
9.05000000e+01	9.98940489e-01
9.15000000e+01	9.98908779e-01
9.25000000e+01	9.98876232e-01
9.35000000e+01	9.98842828e-01
9.45000000e+01	9.98808552e-01
9.55000000e+01	9.98773383e-01
9.65000000e+01	9.98737305e-01
9.75000000e+01	9.98700298e-01
9.85000000e+01	9.98662344e-01
9.95000000e+01	9.98623424e-01
1.00500000e+02	9.98583519e-01
1.01500000e+02	9.98542609e-01
1.02500000e+02	9.98500675e-01
1.03500000e+02	9.98457697e-01
1.04500000e+02	9.98413655e-01
1.05500000e+02	9.98368529e-01
1.06500000e+02	9.98322298e-01
1.07500000e+02	9.98274942e-01
1.08500000e+02	9.98226440e-01
1.09500000e+02	9.98176770e-01
1.10500000e+02	9.98125913e-01
1.11500000e+02	9.98073845e-01
1.12500000e+02	9.98020547e-01
1.13500000e+02	9.97965995e-01
1.14500000e+02	9.97910169e-01
1.15500000e+02	9.97853046e-01
1.16500000e+02	9.97794604e-01
1.17500000e+02	9.97734820e-01
1.18500000e+02	9.97673672e-01
1.19500000e+02	9.97611138e-01
1.20500000e+02	9.97547194e-01
1.21500000e+02	9.97481819e-01
1.22500000e+02	9.97414987e-01
1.23500000e+02	9.97346678e-01
1.24500000e+02	9.97276866e-01
1.25500000e+02	9.97205529e-01
1.26500000e+02	9.97132644e-01
1.27500000e+02	9.97058187e-01
1.28500000e+02	9.96982133e-01
1.29500000e+02	9.96904461e-01
1.30500000e+02	9.96825144e-01
1.31500000e+02	9.96744161e-01
1.32500000e+02	9.96661486e-01
1.33500000e+02	9.96577096e-01
1.34500000e+02	9.96490967e-01
1.35500000e+02	9.96403075e-01
1.36500000e+02	9.96313395e-01
1.37500000e+02	9.96221903e-01
1.38500000e+02	9.96128577e-01
1.39500000e+02	9.96033390e-01
1.40500000e+02	9.95936319e-01
1.41500000e+02	9.95837341e-01
1.42500000e+02	9.95736430e-01
1.43500000e+02	9.95633563e-01
1.44500000e+02	9.95528716e-01
1.45500000e+02	9.95421865e-01
1.46500000e+02	9.95312985e-01
1.47500000e+02	9.95202053e-01
1.48500000e+02	9.95089045e-01
1.49500000e+02	9.94973937e-01
1.50500000e+02	9.94856706e-01
1.51500000e+02	9.94737328e-01
1.52500000e+02	9.94615779e-01
1.53500000e+02	9.94492035e-01
1.54500000e+02	9.94366075e-01
1.55500000e+02	9.94237874e-01
1.56500000e+02	9.94107409e-01
1.57500000e+02	9.93974657e-01
1.58500000e+02	9.93839596e-01
1.59500000e+02	9.93702203e-01
1.60500000e+02	9.93562456e-01
1.61500000e+02	9.93420331e-01
1.62500000e+02	9.93275807e-01
1.63500000e+02	9.93128862e-01
1.64500000e+02	9.92979474e-01
1.65500000e+02	9.92827621e-01
1.66500000e+02	9.92673281e-01
1.67500000e+02	9.92516435e-01
1.68500000e+02	9.92357059e-01
1.69500000e+02	9.92195134e-01
1.70500000e+02	9.92030639e-01
1.71500000e+02	9.91863554e-01
1.72500000e+02	9.91693857e-01
1.73500000e+02	9.91521530e-01
1.74500000e+02	9.91346552e-01
1.75500000e+02	9.91168903e-01
1.76500000e+02	9.90988566e-01
1.77500000e+02	9.90805519e-01
1.78500000e+02	9.90619745e-01
1.79500000e+02	9.90431225e-01
1.80500000e+02	9.90239940e-01
1.81500000e+02	9.90045873e-01
1.82500000e+02	9.89849005e-01
1.83500000e+02	9.89649320e-01
1.84500000e+02	9.89446799e-01
1.85500000e+02	9.89241425e-01
1.86500000e+02	9.89033182e-01
1.87500000e+02	9.88822053e-01
1.88500000e+02	9.88608022e-01
1.89500000e+02	9.88391072e-01
1.90500000e+02	9.88171188e-01
1.91500000e+02	9.87948354e-01
1.92500000e+02	9.87722555e-01
1.93500000e+02	9.87493776e-01
1.94500000e+02	9.87262001e-01
1.95500000e+02	9.87027217e-01
1.96500000e+02	9.86789408e-01
1.97500000e+02	9.86548560e-01
1.98500000e+02	9.86304661e-01
1.99500000e+02	9.86057695e-01
2.00500000e+02	9.85807649e-01
2.01500000e+02	9.85554511e-01
2.02500000e+02	9.85298266e-01
2.03500000e+02	9.85038902e-01
2.04500000e+02	9.84776407e-01
2.05500000e+02	9.84510767e-01
2.06500000e+02	9.84241971e-01
2.07500000e+02	9.83970005e-01
2.08500000e+02	9.83694859e-01
2.09500000e+02	9.83416519e-01
2.10500000e+02	9.83134975e-01
2.11500000e+02	9.82850214e-01
2.12500000e+02	9.82562225e-01
2.13500000e+02	9.82270997e-01
2.14500000e+02	9.81976518e-01
2.15500000e+02	9.81678776e-01
2.16500000e+02	9.81377761e-01
2.17500000e+02	9.81073461e-01
2.18500000e+02	9.80765865e-01
2.19500000e+02	9.80454962e-01
2.20500000e+02	9.80140740e-01
2.21500000e+02	9.79823189e-01
2.22500000e+02	9.79502297e-01
2.23500000e+02	9.79178052e-01
2.24500000e+02	9.78850444e-01
2.25500000e+02	9.78519461e-01
2.26500000e+02	9.78185091e-01
2.27500000e+02	9.77847323e-01
2.28500000e+02	9.77506145e-01
2.29500000e+02	9.77161544e-01
2.30500000e+02	9.76813508e-01
2.31500000e+02	9.76462026e-01
2.32500000e+02	9.76107084e-01
2.33500000e+02	9.75748670e-01
2.34500000e+02	9.75386770e-01
2.35500000e+02	9.75021370e-01
2.36500000e+02	9.74652457e-01
2.37500000e+02	9.74280017e-01
2.38500000e+02	9.73904035e-01
2.39500000e+02	9.73524496e-01
2.40500000e+02	9.73141384e-01
2.41500000e+02	9.72754684e-01
2.42500000e+02	9.72364380e-01
2.43500000e+02	9.71970454e-01
2.44500000e+02	9.71572889e-01
2.45500000e+02	9.71171668e-01
2.46500000e+02	9.70766770e-01
2.47500000e+02	9.70358178e-01
2.48500000e+02	9.69945871e-01
2.49500000e+02	9.69529829e-01
2.50500000e+02	9.69110030e-01
2.51500000e+02	9.68686453e-01
2.52500000e+02	9.68259074e-01
2.53500000e+02	9.67827870e-01
2.54500000e+02	9.67392815e-01
2.55500000e+02	9.66953886e-01
2.56500000e+02	9.66511055e-01
2.57500000e+02	9.66064295e-01
2.58500000e+02	9.65613578e-01
2.59500000e+02	9.65158874e-01
2.60500000e+02	9.64700153e-01
2.61500000e+02	9.64237383e-01
2.62500000e+02	9.63770532e-01
2.63500000e+02	9.63299566e-01
2.64500000e+02	9.62824449e-01
2.65500000e+02	9.62345146e-01
2.66500000e+02	9.61861618e-01
2.67500000e+02	9.61373827e-01
2.68500000e+02	9.60881733e-01
2.69500000e+02	9.60385293e-01
2.70500000e+02	9.59884464e-01
2.71500000e+02	9.59379202e-01
2.72500000e+02	9.58869460e-01
2.73500000e+02	9.58355191e-01
2.74500000e+02	9.57836345e-01
2.75500000e+02	9.57312870e-01
2.76500000e+02	9.56784715e-01
2.77500000e+02	9.56251824e-01
2.78500000e+02	9.55714141e-01
2.79500000e+02	9.55171607e-01
2.80500000e+02	9.54624163e-01
2.81500000e+02	9.54071747e-01
2.82500000e+02	9.53514294e-01
2.83500000e+02	9.52951739e-01
2.84500000e+02	9.52384013e-01
2.85500000e+02	9.51811046e-01
2.86500000e+02	9.51232766e-01
2.87500000e+02	9.50649098e-01
2.88500000e+02	9.50059966e-01
2.89500000e+02	9.49465290e-01
2.90500000e+02	9.48864989e-01
2.91500000e+02	9.48258979e-01
2.92500000e+02	9.47647175e-01
2.93500000e+02	9.47029487e-01
2.94500000e+02	9.46405824e-01
2.95500000e+02	9.45776093e-01
2.96500000e+02	9.45140196e-01
2.97500000e+02	9.44498036e-01
2.98500000e+02	9.43849511e-01
2.99500000e+02	9.43194516e-01
3.00500000e+02	9.42532944e-01
3.01500000e+02	9.41864685e-01
3.02500000e+02	9.41189626e-01
3.03500000e+02	9.40507651e-01
3.04500000e+02	9.39818642e-01
3.05500000e+02	9.39122477e-01
3.06500000e+02	9.38419031e-01
3.07500000e+02	9.37708177e-01
3.08500000e+02	9.36989783e-01
3.09500000e+02	9.36263715e-01
3.10500000e+02	9.35529837e-01
3.11500000e+02	9.34788006e-01
3.12500000e+02	9.34038081e-01
3.13500000e+02	9.33279912e-01
3.14500000e+02	9.32513351e-01
3.15500000e+02	9.31738242e-01
3.16500000e+02	9.30954429e-01
3.17500000e+02	9.30161751e-01
3.18500000e+02	9.29360043e-01
3.19500000e+02	9.28549137e-01
3.20500000e+02	9.27728863e-01
3.21500000e+02	9.26899045e-01
3.22500000e+02	9.26059505e-01
3.23500000e+02	9.25210059e-01
3.24500000e+02	9.24350523e-01
3.25500000e+02	9.23480706e-01
3.26500000e+02	9.22600415e-01
3.27500000e+02	9.21709452e-01
3.28500000e+02	9.20807618e-01
3.29500000e+02	9.19894706e-01
3.30500000e+02	9.18970508e-01
3.31500000e+02	9.18034812e-01
3.32500000e+02	9.17087402e-01
3.33500000e+02	9.16128056e-01
3.34500000e+02	9.15156551e-01
3.35500000e+02	9.14172659e-01
3.36500000e+02	9.13176147e-01
3.37500000e+02	9.12166780e-01
3.38500000e+02	9.11144318e-01
3.39500000e+02	9.10108516e-01
3.40500000e+02	9.09059128e-01
3.41500000e+02	9.07995901e-01
3.42500000e+02	9.06918579e-01
3.43500000e+02	9.05826904e-01
3.44500000e+02	9.04720610e-01
3.45500000e+02	9.03599431e-01
3.46500000e+02	9.02463096e-01
3.47500000e+02	9.01311327e-01
3.48500000e+02	9.00143847e-01
3.49500000e+02	8.98960372e-01
3.50500000e+02	8.97760615e-01
3.51500000e+02	8.96544284e-01
3.52500000e+02	8.95311086e-01
3.53500000e+02	8.94060720e-01
3.54500000e+02	8.92792886e-01
3.55500000e+02	8.91507276e-01
3.56500000e+02	8.90203581e-01
3.57500000e+02	8.88881488e-01
3.58500000e+02	8.87540678e-01
3.59500000e+02	8.86180832e-01
3.60500000e+02	8.84801626e-01
3.61500000e+02	8.83402731e-01
3.62500000e+02	8.81983817e-01
3.63500000e+02	8.80544548e-01
3.64500000e+02	8.79084589e-01
3.65500000e+02	8.77603597e-01
3.66500000e+02	8.76101228e-01
3.67500000e+02	8.74577137e-01
3.68500000e+02	8.73030972e-01
3.69500000e+02	8.71462381e-01
3.70500000e+02	8.69871009e-01
3.71500000e+02	8.68256498e-01
3.72500000e+02	8.66618486e-01
3.73500000e+02	8.64956611e-01
3.74500000e+02	8.63270507e-01
3.75500000e+02	8.61559808e-01
3.76500000e+02	8.59824143e-01
3.77500000e+02	8.58063142e-01
3.78500000e+02	8.56276431e-01
3.79500000e+02	8.54463636e-01
3.80500000e+02	8.52624381e-01
3.81500000e+02	8.50758290e-01
3.82500000e+02	8.48864983e-01
3.83500000e+02	8.46944082e-01
3.84500000e+02	8.44995208e-01
3.85500000e+02	8.43017981e-01
3.86500000e+02	8.41012021e-01
3.87500000e+02	8.38976947e-01
3.88500000e+02	8.36912381e-01
3.89500000e+02	8.34817944e-01
3.90500000e+02	8.32693256e-01
3.91500000e+02	8.30537942e-01
3.92500000e+02	8.28351624e-01
3.93500000e+02	8.26133929e-01
3.94500000e+02	8.23884486e-01
3.95500000e+02	8.21602923e-01
3.96500000e+02	8.19288874e-01
3.97500000e+02	8.16941973e-01
3.98500000e+02	8.14561861e-01
3.99500000e+02	8.12148179e-01
4.00500000e+02	8.09700574e-01
4.01500000e+02	8.07218697e-01
4.02500000e+02	8.04702202e-01
4.03500000e+02	8.02150751e-01
4.04500000e+02	7.99564010e-01
4.05500000e+02	7.96941650e-01
4.06500000e+02	7.94283350e-01
4.07500000e+02	7.91588794e-01
4.08500000e+02	7.88857675e-01
4.09500000e+02	7.86089693e-01
4.10500000e+02	7.83284556e-01
4.11500000e+02	7.80441980e-01
4.12500000e+02	7.77561691e-01
4.13500000e+02	7.74643423e-01
4.14500000e+02	7.71686921e-01
4.15500000e+02	7.68691941e-01
4.16500000e+02	7.65658249e-01
4.17500000e+02	7.62585622e-01
4.18500000e+02	7.59473851e-01
4.19500000e+02	7.56322737e-01
4.20500000e+02	7.53132094e-01
4.21500000e+02	7.49901752e-01
4.22500000e+02	7.46631553e-01
4.23500000e+02	7.43321354e-01
4.24500000e+02	7.39971025e-01
4.25500000e+02	7.36580455e-01
4.26500000e+02	7.33149546e-01
4.27500000e+02	7.29678218e-01
4.28500000e+02	7.26166408e-01
4.29500000e+02	7.22614070e-01
4.30500000e+02	7.19021176e-01
4.31500000e+02	7.15387717e-01
4.32500000e+02	7.11713702e-01
4.33500000e+02	7.07999161e-01
4.34500000e+02	7.04244142e-01
4.35500000e+02	7.00448716e-01
4.36500000e+02	6.96612972e-01
4.37500000e+02	6.92737024e-01
4.38500000e+02	6.88821004e-01
4.39500000e+02	6.84865070e-01
4.40500000e+02	6.80869400e-01
4.41500000e+02	6.76834197e-01
4.42500000e+02	6.72759686e-01
4.43500000e+02	6.68646119e-01
4.44500000e+02	6.64493771e-01
4.45500000e+02	6.60302941e-01
4.46500000e+02	6.56073956e-01
4.47500000e+02	6.51807168e-01
4.48500000e+02	6.47502954e-01
4.49500000e+02	6.43161721e-01
4.50500000e+02	6.38783900e-01
4.51500000e+02	6.34369954e-01
4.52500000e+02	6.29920370e-01
4.53500000e+02	6.25435668e-01
4.54500000e+02	6.20916393e-01
4.55500000e+02	6.16363125e-01
4.56500000e+02	6.11776470e-01
4.57500000e+02	6.07157067e-01
4.58500000e+02	6.02505587e-01
4.59500000e+02	5.97822731e-01
4.60500000e+02	5.93109235e-01
4.61500000e+02	5.88365867e-01
4.62500000e+02	5.83593429e-01
4.63500000e+02	5.78792758e-01
4.64500000e+02	5.73964727e-01
4.65500000e+02	5.69110241e-01
4.66500000e+02	5.64230247e-01
4.67500000e+02	5.59325726e-01
4.68500000e+02	5.54397696e-01
4.69500000e+02	5.49447218e-01
4.70500000e+02	5.44475387e-01
4.71500000e+02	5.39483343e-01
4.72500000e+02	5.34472263e-01
4.73500000e+02	5.29443367e-01
4.74500000e+02	5.24397919e-01
4.75500000e+02	5.19337222e-01
4.76500000e+02	5.14262626e-01
4.77500000e+02	5.09175523e-01
4.78500000e+02	5.04077348e-01
4.79500000e+02	4.98969585e-01
4.80500000e+02	4.93853759e-01
4.81500000e+02	4.88731443e-01
4.82500000e+02	4.83604253e-01
4.83500000e+02	4.78473852e-01
4.84500000e+02	4.73341948e-01
4.85500000e+02	4.68210294e-01
4.86500000e+02	4.63080685e-01
4.87500000e+02	4.57954961e-01
4.88500000e+02	4.52835005e-01
4.89500000e+02	4.47722739e-01
4.90500000e+02	4.42620125e-01
4.91500000e+02	4.37529164e-01
4.92500000e+02	4.32451892e-01
4.93500000e+02	4.27390376e-01
4.94500000e+02	4.22346715e-01
4.95500000e+02	4.17323036e-01
4.96500000e+02	4.12321488e-01
4.97500000e+02	4.07344241e-01
4.98500000e+02	4.02393480e-01
4.99500000e+02	3.97471401e-01
5.00500000e+02	3.92580207e-01
5.01500000e+02	3.87722104e-01
5.02500000e+02	3.82899290e-01
5.03500000e+02	3.78113957e-01
5.04500000e+02	3.73368277e-01
5.05500000e+02	3.68664403e-01
5.06500000e+02	3.64004459e-01
5.07500000e+02	3.59390532e-01
5.08500000e+02	3.54824668e-01
5.09500000e+02	3.50308866e-01
5.10500000e+02	3.45845066e-01
5.11500000e+02	3.41435149e-01
5.12500000e+02	3.37080928e-01
5.13500000e+02	3.32784137e-01
5.14500000e+02	3.28546433e-01
5.15500000e+02	3.24369384e-01
5.16500000e+02	3.20254467e-01
5.17500000e+02	3.16203060e-01
5.18500000e+02	3.12216440e-01
5.19500000e+02	3.08295777e-01
5.20500000e+02	3.04442133e-01
5.21500000e+02	3.00656455e-01
5.22500000e+02	2.96939579e-01
5.23500000e+02	2.93292220e-01
5.24500000e+02	2.89714979e-01
5.25500000e+02	2.86208337e-01
5.26500000e+02	2.82772658e-01
5.27500000e+02	2.79408190e-01
5.28500000e+02	2.76115064e-01
5.29500000e+02	2.72893299e-01
5.30500000e+02	2.69742804e-01
5.31500000e+02	2.66663381e-01
5.32500000e+02	2.63654728e-01
5.33500000e+02	2.60716443e-01
5.34500000e+02	2.57848029e-01
5.35500000e+02	2.55048901e-01
5.36500000e+02	2.52318387e-01
5.37500000e+02	2.49655737e-01
5.38500000e+02	2.47060125e-01
5.39500000e+02	2.44530658e-01
5.40500000e+02	2.42066380e-01
5.41500000e+02	2.39666276e-01
5.42500000e+02	2.37329281e-01
5.43500000e+02	2.35054285e-01
5.44500000e+02	2.32840136e-01
5.45500000e+02	2.30685647e-01
5.46500000e+02	2.28589600e-01
5.47500000e+02	2.26550755e-01
5.48500000e+02	2.24567849e-01
5.49500000e+02	2.22639605e-01
5.50500000e+02	2.20764732e-01
5.51500000e+02	2.18941935e-01
5.52500000e+02	2.17169914e-01
5.53500000e+02	2.15447367e-01
5.54500000e+02	2.13772999e-01
5.55500000e+02	2.12145517e-01
5.56500000e+02	2.10563641e-01
5.57500000e+02	2.09026098e-01
5.58500000e+02	2.07531633e-01
5.59500000e+02	2.06079003e-01
5.60500000e+02	2.04666986e-01
5.61500000e+02	2.03294375e-01
5.62500000e+02	2.01959986e-01
5.63500000e+02	2.00662657e-01
5.64500000e+02	1.99401248e-01
5.65500000e+02	1.98174641e-01
5.66500000e+02	1.96981744e-01
5.67500000e+02	1.95821490e-01
5.68500000e+02	1.94692836e-01
5.69500000e+02	1.93594765e-01
5.70500000e+02	1.92526287e-01
5.71500000e+02	1.91486434e-01
5.72500000e+02	1.90474269e-01
5.73500000e+02	1.89488878e-01
5.74500000e+02	1.88529374e-01
5.75500000e+02	1.87594894e-01
5.76500000e+02	1.86684602e-01
5.77500000e+02	1.85797686e-01
5.78500000e+02	1.84933361e-01
5.79500000e+02	1.84090864e-01
5.80500000e+02	1.83269458e-01
5.81500000e+02	1.82468430e-01
5.82500000e+02	1.81687089e-01
5.83500000e+02	1.80924769e-01
5.84500000e+02	1.80180826e-01
5.85500000e+02	1.79454637e-01
5.86500000e+02	1.78745603e-01
5.87500000e+02	1.78053147e-01
5.88500000e+02	1.77376710e-01
5.89500000e+02	1.76715757e-01
5.90500000e+02	1.76069773e-01
5.91500000e+02	1.75438260e-01
5.92500000e+02	1.74820744e-01
5.93500000e+02	1.74216767e-01
5.94500000e+02	1.73625891e-01
5.95500000e+02	1.73047698e-01
5.96500000e+02	1.72481784e-01
5.97500000e+02	1.71927768e-01
5.98500000e+02	1.71385282e-01
5.99500000e+02	1.70853979e-01
6.00500000e+02	1.70333525e-01
6.01500000e+02	1.69823604e-01
6.02500000e+02	1.69323915e-01
6.03500000e+02	1.68834175e-01
6.04500000e+02	1.68354112e-01
6.05500000e+02	1.67883472e-01
6.06500000e+02	1.67422018e-01
6.07500000e+02	1.66969517e-01
6.08500000e+02	1.66525757e-01
6.09500000e+02	1.66090547e-01
6.10500000e+02	1.65663686e-01
6.11500000e+02	1.65244992e-01
6.12500000e+02	1.64834315e-01
6.13500000e+02	1.64431501e-01
6.14500000e+02	1.64036397e-01
6.15500000e+02	1.63648885e-01
6.16500000e+02	1.63268828e-01
6.17500000e+02	1.62896118e-01
6.18500000e+02	1.62530651e-01
6.19500000e+02	1.62172320e-01
6.20500000e+02	1.61821046e-01
6.21500000e+02	1.61476730e-01
6.22500000e+02	1.61139307e-01
6.23500000e+02	1.60808693e-01
6.24500000e+02	1.60484828e-01
6.25500000e+02	1.60167643e-01
6.26500000e+02	1.59857080e-01
6.27500000e+02	1.59553083e-01
6.28500000e+02	1.59255595e-01
6.29500000e+02	1.58964569e-01
6.30500000e+02	1.58679949e-01
6.31500000e+02	1.58401693e-01
6.32500000e+02	1.58129746e-01
6.33500000e+02	1.57864067e-01
6.34500000e+02	1.57604604e-01
6.35500000e+02	1.57351312e-01
6.36500000e+02	1.57104142e-01
6.37500000e+02	1.56863044e-01
6.38500000e+02	1.56627967e-01
6.39500000e+02	1.56398860e-01
6.40500000e+02	1.56175670e-01
6.41500000e+02	1.55958339e-01
6.42500000e+02	1.55746813e-01
6.43500000e+02	1.55541028e-01
6.44500000e+02	1.55340926e-01
6.45500000e+02	1.55146441e-01
6.46500000e+02	1.54957508e-01
6.47500000e+02	1.54774057e-01
6.48500000e+02	1.54596020e-01
6.49500000e+02	1.54423320e-01
6.50500000e+02	1.54255886e-01
6.51500000e+02	1.54093639e-01
6.52500000e+02	1.53936501e-01
6.53500000e+02	1.53784391e-01
6.54500000e+02	1.53637228e-01
6.55500000e+02	1.53494927e-01
6.56500000e+02	1.53357405e-01
6.57500000e+02	1.53224574e-01
6.58500000e+02	1.53096350e-01
6.59500000e+02	1.52972642e-01
6.60500000e+02	1.52853365e-01
