# Profil de Te au temps 2.000999999999940e-11 
# simu : /Volumes/MERCURE/JOBS/Zeq2_tanh_50mic_1p5e20_B0_20ps/GNU/Te@y-c.set
# col 0 : abscisse (um)
# col 1 : Te (keV)
5.00000000e-01	9.72153797e-01
1.50000000e+00	9.72152926e-01
2.50000000e+00	9.72151324e-01
3.50000000e+00	9.72148911e-01
4.50000000e+00	9.72145661e-01
5.50000000e+00	9.72141602e-01
6.50000000e+00	9.72136730e-01
7.50000000e+00	9.72131046e-01
8.50000000e+00	9.72124548e-01
9.50000000e+00	9.72117235e-01
1.05000000e+01	9.72109106e-01
1.15000000e+01	9.72100161e-01
1.25000000e+01	9.72090398e-01
1.35000000e+01	9.72079817e-01
1.45000000e+01	9.72068416e-01
1.55000000e+01	9.72056193e-01
1.65000000e+01	9.72043148e-01
1.75000000e+01	9.72029278e-01
1.85000000e+01	9.72014582e-01
1.95000000e+01	9.71999059e-01
2.05000000e+01	9.71982706e-01
2.15000000e+01	9.71965522e-01
2.25000000e+01	9.71947504e-01
2.35000000e+01	9.71928650e-01
2.45000000e+01	9.71908959e-01
2.55000000e+01	9.71888428e-01
2.65000000e+01	9.71867054e-01
2.75000000e+01	9.71844835e-01
2.85000000e+01	9.71821768e-01
2.95000000e+01	9.71797851e-01
3.05000000e+01	9.71773081e-01
3.15000000e+01	9.71747455e-01
3.25000000e+01	9.71720969e-01
3.35000000e+01	9.71693622e-01
3.45000000e+01	9.71665409e-01
3.55000000e+01	9.71636328e-01
3.65000000e+01	9.71606374e-01
3.75000000e+01	9.71575546e-01
3.85000000e+01	9.71543838e-01
3.95000000e+01	9.71511248e-01
4.05000000e+01	9.71477771e-01
4.15000000e+01	9.71443404e-01
4.25000000e+01	9.71408143e-01
4.35000000e+01	9.71371984e-01
4.45000000e+01	9.71334923e-01
4.55000000e+01	9.71296955e-01
4.65000000e+01	9.71258076e-01
4.75000000e+01	9.71218282e-01
4.85000000e+01	9.71177568e-01
4.95000000e+01	9.71135930e-01
5.05000000e+01	9.71093363e-01
5.15000000e+01	9.71049862e-01
5.25000000e+01	9.71005423e-01
5.35000000e+01	9.70960040e-01
5.45000000e+01	9.70913708e-01
5.55000000e+01	9.70866422e-01
5.65000000e+01	9.70818177e-01
5.75000000e+01	9.70768968e-01
5.85000000e+01	9.70718789e-01
5.95000000e+01	9.70667634e-01
6.05000000e+01	9.70615498e-01
6.15000000e+01	9.70562376e-01
6.25000000e+01	9.70508261e-01
6.35000000e+01	9.70453148e-01
6.45000000e+01	9.70397031e-01
6.55000000e+01	9.70339903e-01
6.65000000e+01	9.70281758e-01
6.75000000e+01	9.70222590e-01
6.85000000e+01	9.70162394e-01
6.95000000e+01	9.70101161e-01
7.05000000e+01	9.70038887e-01
7.15000000e+01	9.69975564e-01
7.25000000e+01	9.69911185e-01
7.35000000e+01	9.69845744e-01
7.45000000e+01	9.69779234e-01
7.55000000e+01	9.69711647e-01
7.65000000e+01	9.69642978e-01
7.75000000e+01	9.69573218e-01
7.85000000e+01	9.69502361e-01
7.95000000e+01	9.69430399e-01
8.05000000e+01	9.69357324e-01
8.15000000e+01	9.69283130e-01
8.25000000e+01	9.69207808e-01
8.35000000e+01	9.69131352e-01
8.45000000e+01	9.69053752e-01
8.55000000e+01	9.68975002e-01
8.65000000e+01	9.68895093e-01
8.75000000e+01	9.68814018e-01
8.85000000e+01	9.68731767e-01
8.95000000e+01	9.68648334e-01
9.05000000e+01	9.68563710e-01
9.15000000e+01	9.68477886e-01
9.25000000e+01	9.68390854e-01
9.35000000e+01	9.68302605e-01
9.45000000e+01	9.68213132e-01
9.55000000e+01	9.68122424e-01
9.65000000e+01	9.68030473e-01
9.75000000e+01	9.67937271e-01
9.85000000e+01	9.67842808e-01
9.95000000e+01	9.67747076e-01
1.00500000e+02	9.67650065e-01
1.01500000e+02	9.67551766e-01
1.02500000e+02	9.67452169e-01
1.03500000e+02	9.67351267e-01
1.04500000e+02	9.67249049e-01
1.05500000e+02	9.67145506e-01
1.06500000e+02	9.67040627e-01
1.07500000e+02	9.66934404e-01
1.08500000e+02	9.66826827e-01
1.09500000e+02	9.66717885e-01
1.10500000e+02	9.66607568e-01
1.11500000e+02	9.66495868e-01
1.12500000e+02	9.66382773e-01
1.13500000e+02	9.66268273e-01
1.14500000e+02	9.66152357e-01
1.15500000e+02	9.66035016e-01
1.16500000e+02	9.65916239e-01
1.17500000e+02	9.65796015e-01
1.18500000e+02	9.65674333e-01
1.19500000e+02	9.65551183e-01
1.20500000e+02	9.65426553e-01
1.21500000e+02	9.65300433e-01
1.22500000e+02	9.65172812e-01
1.23500000e+02	9.65043678e-01
1.24500000e+02	9.64913021e-01
1.25500000e+02	9.64780828e-01
1.26500000e+02	9.64647089e-01
1.27500000e+02	9.64511791e-01
1.28500000e+02	9.64374925e-01
1.29500000e+02	9.64236476e-01
1.30500000e+02	9.64096435e-01
1.31500000e+02	9.63954788e-01
1.32500000e+02	9.63811525e-01
1.33500000e+02	9.63666632e-01
1.34500000e+02	9.63520098e-01
1.35500000e+02	9.63371910e-01
1.36500000e+02	9.63222057e-01
1.37500000e+02	9.63070525e-01
1.38500000e+02	9.62917302e-01
1.39500000e+02	9.62762375e-01
1.40500000e+02	9.62605732e-01
1.41500000e+02	9.62447360e-01
1.42500000e+02	9.62287245e-01
1.43500000e+02	9.62125374e-01
1.44500000e+02	9.61961735e-01
1.45500000e+02	9.61796314e-01
1.46500000e+02	9.61629098e-01
1.47500000e+02	9.61460072e-01
1.48500000e+02	9.61289224e-01
1.49500000e+02	9.61116540e-01
1.50500000e+02	9.60942005e-01
1.51500000e+02	9.60765606e-01
1.52500000e+02	9.60587329e-01
1.53500000e+02	9.60407159e-01
1.54500000e+02	9.60225082e-01
1.55500000e+02	9.60041083e-01
1.56500000e+02	9.59855148e-01
1.57500000e+02	9.59667263e-01
1.58500000e+02	9.59477411e-01
1.59500000e+02	9.59285579e-01
1.60500000e+02	9.59091751e-01
1.61500000e+02	9.58895912e-01
1.62500000e+02	9.58698046e-01
1.63500000e+02	9.58498138e-01
1.64500000e+02	9.58296172e-01
1.65500000e+02	9.58092133e-01
1.66500000e+02	9.57886004e-01
1.67500000e+02	9.57677770e-01
1.68500000e+02	9.57467413e-01
1.69500000e+02	9.57254918e-01
1.70500000e+02	9.57040268e-01
1.71500000e+02	9.56823446e-01
1.72500000e+02	9.56604436e-01
1.73500000e+02	9.56383220e-01
1.74500000e+02	9.56159781e-01
1.75500000e+02	9.55934102e-01
1.76500000e+02	9.55706165e-01
1.77500000e+02	9.55475952e-01
1.78500000e+02	9.55243446e-01
1.79500000e+02	9.55008629e-01
1.80500000e+02	9.54771481e-01
1.81500000e+02	9.54531986e-01
1.82500000e+02	9.54290123e-01
1.83500000e+02	9.54045875e-01
1.84500000e+02	9.53799222e-01
1.85500000e+02	9.53550145e-01
1.86500000e+02	9.53298625e-01
1.87500000e+02	9.53044642e-01
1.88500000e+02	9.52788177e-01
1.89500000e+02	9.52529208e-01
1.90500000e+02	9.52267717e-01
1.91500000e+02	9.52003682e-01
1.92500000e+02	9.51737084e-01
1.93500000e+02	9.51467900e-01
1.94500000e+02	9.51196110e-01
1.95500000e+02	9.50921693e-01
1.96500000e+02	9.50644627e-01
1.97500000e+02	9.50364891e-01
1.98500000e+02	9.50082462e-01
1.99500000e+02	9.49797317e-01
2.00500000e+02	9.49509436e-01
2.01500000e+02	9.49218794e-01
2.02500000e+02	9.48925368e-01
2.03500000e+02	9.48629136e-01
2.04500000e+02	9.48330074e-01
2.05500000e+02	9.48028158e-01
2.06500000e+02	9.47723364e-01
2.07500000e+02	9.47415668e-01
2.08500000e+02	9.47105045e-01
2.09500000e+02	9.46791469e-01
2.10500000e+02	9.46474917e-01
2.11500000e+02	9.46155362e-01
2.12500000e+02	9.45832779e-01
2.13500000e+02	9.45507142e-01
2.14500000e+02	9.45178423e-01
2.15500000e+02	9.44846597e-01
2.16500000e+02	9.44511637e-01
2.17500000e+02	9.44173515e-01
2.18500000e+02	9.43832203e-01
2.19500000e+02	9.43487674e-01
2.20500000e+02	9.43139900e-01
2.21500000e+02	9.42788851e-01
2.22500000e+02	9.42434499e-01
2.23500000e+02	9.42076815e-01
2.24500000e+02	9.41715768e-01
2.25500000e+02	9.41351329e-01
2.26500000e+02	9.40983468e-01
2.27500000e+02	9.40612153e-01
2.28500000e+02	9.40237354e-01
2.29500000e+02	9.39859039e-01
2.30500000e+02	9.39477176e-01
2.31500000e+02	9.39091734e-01
2.32500000e+02	9.38702679e-01
2.33500000e+02	9.38309978e-01
2.34500000e+02	9.37913599e-01
2.35500000e+02	9.37513506e-01
2.36500000e+02	9.37109667e-01
2.37500000e+02	9.36702046e-01
2.38500000e+02	9.36290609e-01
2.39500000e+02	9.35875319e-01
2.40500000e+02	9.35456141e-01
2.41500000e+02	9.35033039e-01
2.42500000e+02	9.34605976e-01
2.43500000e+02	9.34174914e-01
2.44500000e+02	9.33739816e-01
2.45500000e+02	9.33300644e-01
2.46500000e+02	9.32857359e-01
2.47500000e+02	9.32409922e-01
2.48500000e+02	9.31958293e-01
2.49500000e+02	9.31502433e-01
2.50500000e+02	9.31042301e-01
2.51500000e+02	9.30577856e-01
2.52500000e+02	9.30109056e-01
2.53500000e+02	9.29635859e-01
2.54500000e+02	9.29158223e-01
2.55500000e+02	9.28676105e-01
2.56500000e+02	9.28189461e-01
2.57500000e+02	9.27698247e-01
2.58500000e+02	9.27202418e-01
2.59500000e+02	9.26701930e-01
2.60500000e+02	9.26196736e-01
2.61500000e+02	9.25686791e-01
2.62500000e+02	9.25172046e-01
2.63500000e+02	9.24652456e-01
2.64500000e+02	9.24127972e-01
2.65500000e+02	9.23598545e-01
2.66500000e+02	9.23064127e-01
2.67500000e+02	9.22524667e-01
2.68500000e+02	9.21980115e-01
2.69500000e+02	9.21430421e-01
2.70500000e+02	9.20875532e-01
2.71500000e+02	9.20315397e-01
2.72500000e+02	9.19749963e-01
2.73500000e+02	9.19179176e-01
2.74500000e+02	9.18602983e-01
2.75500000e+02	9.18021328e-01
2.76500000e+02	9.17434157e-01
2.77500000e+02	9.16841413e-01
2.78500000e+02	9.16243040e-01
2.79500000e+02	9.15638980e-01
2.80500000e+02	9.15029176e-01
2.81500000e+02	9.14413569e-01
2.82500000e+02	9.13792100e-01
2.83500000e+02	9.13164708e-01
2.84500000e+02	9.12531332e-01
2.85500000e+02	9.11891913e-01
2.86500000e+02	9.11246386e-01
2.87500000e+02	9.10594690e-01
2.88500000e+02	9.09936761e-01
2.89500000e+02	9.09272534e-01
2.90500000e+02	9.08601945e-01
2.91500000e+02	9.07924928e-01
2.92500000e+02	9.07241416e-01
2.93500000e+02	9.06551343e-01
2.94500000e+02	9.05854640e-01
2.95500000e+02	9.05151238e-01
2.96500000e+02	9.04441068e-01
2.97500000e+02	9.03724060e-01
2.98500000e+02	9.03000143e-01
2.99500000e+02	9.02269244e-01
3.00500000e+02	9.01531292e-01
3.01500000e+02	9.00786212e-01
3.02500000e+02	9.00033932e-01
3.03500000e+02	8.99274375e-01
3.04500000e+02	8.98507466e-01
3.05500000e+02	8.97733129e-01
3.06500000e+02	8.96951285e-01
3.07500000e+02	8.96161858e-01
3.08500000e+02	8.95364767e-01
3.09500000e+02	8.94559934e-01
3.10500000e+02	8.93747277e-01
3.11500000e+02	8.92926715e-01
3.12500000e+02	8.92098166e-01
3.13500000e+02	8.91261547e-01
3.14500000e+02	8.90416773e-01
3.15500000e+02	8.89563760e-01
3.16500000e+02	8.88702423e-01
3.17500000e+02	8.87832675e-01
3.18500000e+02	8.86954428e-01
3.19500000e+02	8.86067594e-01
3.20500000e+02	8.85172086e-01
3.21500000e+02	8.84267812e-01
3.22500000e+02	8.83354682e-01
3.23500000e+02	8.82432606e-01
3.24500000e+02	8.81501489e-01
3.25500000e+02	8.80561240e-01
3.26500000e+02	8.79611765e-01
3.27500000e+02	8.78652968e-01
3.28500000e+02	8.77684754e-01
3.29500000e+02	8.76707026e-01
3.30500000e+02	8.75719688e-01
3.31500000e+02	8.74722641e-01
3.32500000e+02	8.73715787e-01
3.33500000e+02	8.72699024e-01
3.34500000e+02	8.71672254e-01
3.35500000e+02	8.70635375e-01
3.36500000e+02	8.69588284e-01
3.37500000e+02	8.68530879e-01
3.38500000e+02	8.67463055e-01
3.39500000e+02	8.66384709e-01
3.40500000e+02	8.65295736e-01
3.41500000e+02	8.64196028e-01
3.42500000e+02	8.63085480e-01
3.43500000e+02	8.61963984e-01
3.44500000e+02	8.60831432e-01
3.45500000e+02	8.59687715e-01
3.46500000e+02	8.58532722e-01
3.47500000e+02	8.57366344e-01
3.48500000e+02	8.56188470e-01
3.49500000e+02	8.54998988e-01
3.50500000e+02	8.53797786e-01
3.51500000e+02	8.52584750e-01
3.52500000e+02	8.51359768e-01
3.53500000e+02	8.50122723e-01
3.54500000e+02	8.48873503e-01
3.55500000e+02	8.47611991e-01
3.56500000e+02	8.46338072e-01
3.57500000e+02	8.45051628e-01
3.58500000e+02	8.43752544e-01
3.59500000e+02	8.42440700e-01
3.60500000e+02	8.41115980e-01
3.61500000e+02	8.39778265e-01
3.62500000e+02	8.38427436e-01
3.63500000e+02	8.37063373e-01
3.64500000e+02	8.35685957e-01
3.65500000e+02	8.34295068e-01
3.66500000e+02	8.32890585e-01
3.67500000e+02	8.31472388e-01
3.68500000e+02	8.30040356e-01
3.69500000e+02	8.28594367e-01
3.70500000e+02	8.27134300e-01
3.71500000e+02	8.25660033e-01
3.72500000e+02	8.24171445e-01
3.73500000e+02	8.22668414e-01
3.74500000e+02	8.21150817e-01
3.75500000e+02	8.19618533e-01
3.76500000e+02	8.18071440e-01
3.77500000e+02	8.16509414e-01
3.78500000e+02	8.14932336e-01
3.79500000e+02	8.13340081e-01
3.80500000e+02	8.11732530e-01
3.81500000e+02	8.10109559e-01
3.82500000e+02	8.08471048e-01
3.83500000e+02	8.06816876e-01
3.84500000e+02	8.05146921e-01
3.85500000e+02	8.03461063e-01
3.86500000e+02	8.01759182e-01
3.87500000e+02	8.00041158e-01
3.88500000e+02	7.98306872e-01
3.89500000e+02	7.96556206e-01
3.90500000e+02	7.94789040e-01
3.91500000e+02	7.93005258e-01
3.92500000e+02	7.91204742e-01
3.93500000e+02	7.89387377e-01
3.94500000e+02	7.87553047e-01
3.95500000e+02	7.85701637e-01
3.96500000e+02	7.83833034e-01
3.97500000e+02	7.81947125e-01
3.98500000e+02	7.80043798e-01
3.99500000e+02	7.78122942e-01
4.00500000e+02	7.76184448e-01
4.01500000e+02	7.74228207e-01
4.02500000e+02	7.72254112e-01
4.03500000e+02	7.70262056e-01
4.04500000e+02	7.68251936e-01
4.05500000e+02	7.66223647e-01
4.06500000e+02	7.64177087e-01
4.07500000e+02	7.62112157e-01
4.08500000e+02	7.60028758e-01
4.09500000e+02	7.57926791e-01
4.10500000e+02	7.55806162e-01
4.11500000e+02	7.53666777e-01
4.12500000e+02	7.51508544e-01
4.13500000e+02	7.49331372e-01
4.14500000e+02	7.47135174e-01
4.15500000e+02	7.44919864e-01
4.16500000e+02	7.42685357e-01
4.17500000e+02	7.40431571e-01
4.18500000e+02	7.38158426e-01
4.19500000e+02	7.35865847e-01
4.20500000e+02	7.33553756e-01
4.21500000e+02	7.31222082e-01
4.22500000e+02	7.28870754e-01
4.23500000e+02	7.26499705e-01
4.24500000e+02	7.24108869e-01
4.25500000e+02	7.21698186e-01
4.26500000e+02	7.19267594e-01
4.27500000e+02	7.16817037e-01
4.28500000e+02	7.14346463e-01
4.29500000e+02	7.11855819e-01
4.30500000e+02	7.09345059e-01
4.31500000e+02	7.06814139e-01
4.32500000e+02	7.04263016e-01
4.33500000e+02	7.01691653e-01
4.34500000e+02	6.99100016e-01
4.35500000e+02	6.96488074e-01
4.36500000e+02	6.93855800e-01
4.37500000e+02	6.91203169e-01
4.38500000e+02	6.88530163e-01
4.39500000e+02	6.85836765e-01
4.40500000e+02	6.83122963e-01
4.41500000e+02	6.80388750e-01
4.42500000e+02	6.77634121e-01
4.43500000e+02	6.74859077e-01
4.44500000e+02	6.72063623e-01
4.45500000e+02	6.69247768e-01
4.46500000e+02	6.66411527e-01
4.47500000e+02	6.63554918e-01
4.48500000e+02	6.60677965e-01
4.49500000e+02	6.57780696e-01
4.50500000e+02	6.54863144e-01
4.51500000e+02	6.51925350e-01
4.52500000e+02	6.48967357e-01
4.53500000e+02	6.45989214e-01
4.54500000e+02	6.42990978e-01
4.55500000e+02	6.39972710e-01
4.56500000e+02	6.36934477e-01
4.57500000e+02	6.33876353e-01
4.58500000e+02	6.30798417e-01
4.59500000e+02	6.27700757e-01
4.60500000e+02	6.24583464e-01
4.61500000e+02	6.21446640e-01
4.62500000e+02	6.18290391e-01
4.63500000e+02	6.15114832e-01
4.64500000e+02	6.11920086e-01
4.65500000e+02	6.08706282e-01
4.66500000e+02	6.05473558e-01
4.67500000e+02	6.02222062e-01
4.68500000e+02	5.98951946e-01
4.69500000e+02	5.95663377e-01
4.70500000e+02	5.92356525e-01
4.71500000e+02	5.89031575e-01
4.72500000e+02	5.85688717e-01
4.73500000e+02	5.82328154e-01
4.74500000e+02	5.78950099e-01
4.75500000e+02	5.75554774e-01
4.76500000e+02	5.72142415e-01
4.77500000e+02	5.68713266e-01
4.78500000e+02	5.65267585e-01
4.79500000e+02	5.61805641e-01
4.80500000e+02	5.58327717e-01
4.81500000e+02	5.54834109e-01
4.82500000e+02	5.51325123e-01
4.83500000e+02	5.47801082e-01
4.84500000e+02	5.44262324e-01
4.85500000e+02	5.40709198e-01
4.86500000e+02	5.37142071e-01
4.87500000e+02	5.33561324e-01
4.88500000e+02	5.29967355e-01
4.89500000e+02	5.26360578e-01
4.90500000e+02	5.22741423e-01
4.91500000e+02	5.19110339e-01
4.92500000e+02	5.15467792e-01
4.93500000e+02	5.11814266e-01
4.94500000e+02	5.08150263e-01
4.95500000e+02	5.04476306e-01
4.96500000e+02	5.00792936e-01
4.97500000e+02	4.97100714e-01
4.98500000e+02	4.93400223e-01
4.99500000e+02	4.89692066e-01
5.00500000e+02	4.85976865e-01
5.01500000e+02	4.82255266e-01
5.02500000e+02	4.78527937e-01
5.03500000e+02	4.74795566e-01
5.04500000e+02	4.71058866e-01
5.05500000e+02	4.67318569e-01
5.06500000e+02	4.63575433e-01
5.07500000e+02	4.59830238e-01
5.08500000e+02	4.56083785e-01
5.09500000e+02	4.52336899e-01
5.10500000e+02	4.48590430e-01
5.11500000e+02	4.44845247e-01
5.12500000e+02	4.41102243e-01
5.13500000e+02	4.37362334e-01
5.14500000e+02	4.33626456e-01
5.15500000e+02	4.29895568e-01
5.16500000e+02	4.26170648e-01
5.17500000e+02	4.22452696e-01
5.18500000e+02	4.18742729e-01
5.19500000e+02	4.15041784e-01
5.20500000e+02	4.11350915e-01
5.21500000e+02	4.07671191e-01
5.22500000e+02	4.04003699e-01
5.23500000e+02	4.00349536e-01
5.24500000e+02	3.96709814e-01
5.25500000e+02	3.93085655e-01
5.26500000e+02	3.89478188e-01
5.27500000e+02	3.85888551e-01
5.28500000e+02	3.82317887e-01
5.29500000e+02	3.78767342e-01
5.30500000e+02	3.75238061e-01
5.31500000e+02	3.71731191e-01
5.32500000e+02	3.68247872e-01
5.33500000e+02	3.64789238e-01
5.34500000e+02	3.61356418e-01
5.35500000e+02	3.57950525e-01
5.36500000e+02	3.54572660e-01
5.37500000e+02	3.51223908e-01
5.38500000e+02	3.47905333e-01
5.39500000e+02	3.44617978e-01
5.40500000e+02	3.41362863e-01
5.41500000e+02	3.38140976e-01
5.42500000e+02	3.34953280e-01
5.43500000e+02	3.31800701e-01
5.44500000e+02	3.28684134e-01
5.45500000e+02	3.25604434e-01
5.46500000e+02	3.22562416e-01
5.47500000e+02	3.19558855e-01
5.48500000e+02	3.16594481e-01
5.49500000e+02	3.13669980e-01
5.50500000e+02	3.10785988e-01
5.51500000e+02	3.07943094e-01
5.52500000e+02	3.05141837e-01
5.53500000e+02	3.02382704e-01
5.54500000e+02	2.99666132e-01
5.55500000e+02	2.96992505e-01
5.56500000e+02	2.94362151e-01
5.57500000e+02	2.91775350e-01
5.58500000e+02	2.89232326e-01
5.59500000e+02	2.86733250e-01
5.60500000e+02	2.84278242e-01
5.61500000e+02	2.81867370e-01
5.62500000e+02	2.79500651e-01
5.63500000e+02	2.77178053e-01
5.64500000e+02	2.74899497e-01
5.65500000e+02	2.72664853e-01
5.66500000e+02	2.70473949e-01
5.67500000e+02	2.68326569e-01
5.68500000e+02	2.66222454e-01
5.69500000e+02	2.64161305e-01
5.70500000e+02	2.62142787e-01
5.71500000e+02	2.60166527e-01
5.72500000e+02	2.58232120e-01
5.73500000e+02	2.56339127e-01
5.74500000e+02	2.54487081e-01
5.75500000e+02	2.52675489e-01
5.76500000e+02	2.50903832e-01
5.77500000e+02	2.49171568e-01
5.78500000e+02	2.47478134e-01
5.79500000e+02	2.45822951e-01
5.80500000e+02	2.44205420e-01
5.81500000e+02	2.42624930e-01
5.82500000e+02	2.41080858e-01
5.83500000e+02	2.39572570e-01
5.84500000e+02	2.38099423e-01
5.85500000e+02	2.36660767e-01
5.86500000e+02	2.35255948e-01
5.87500000e+02	2.33884306e-01
5.88500000e+02	2.32545183e-01
5.89500000e+02	2.31237916e-01
5.90500000e+02	2.29961845e-01
5.91500000e+02	2.28716312e-01
5.92500000e+02	2.27500661e-01
5.93500000e+02	2.26314241e-01
5.94500000e+02	2.25156404e-01
5.95500000e+02	2.24026512e-01
5.96500000e+02	2.22923929e-01
5.97500000e+02	2.21848030e-01
5.98500000e+02	2.20798197e-01
5.99500000e+02	2.19773820e-01
6.00500000e+02	2.18774300e-01
6.01500000e+02	2.17799046e-01
6.02500000e+02	2.16847478e-01
6.03500000e+02	2.15919026e-01
6.04500000e+02	2.15013133e-01
6.05500000e+02	2.14129249e-01
6.06500000e+02	2.13266839e-01
6.07500000e+02	2.12425377e-01
6.08500000e+02	2.11604350e-01
6.09500000e+02	2.10803255e-01
6.10500000e+02	2.10021602e-01
6.11500000e+02	2.09258912e-01
6.12500000e+02	2.08514718e-01
6.13500000e+02	2.07788563e-01
6.14500000e+02	2.07080005e-01
6.15500000e+02	2.06388609e-01
6.16500000e+02	2.05713954e-01
6.17500000e+02	2.05055629e-01
6.18500000e+02	2.04413236e-01
6.19500000e+02	2.03786386e-01
6.20500000e+02	2.03174701e-01
6.21500000e+02	2.02577813e-01
6.22500000e+02	2.01995366e-01
6.23500000e+02	2.01427013e-01
6.24500000e+02	2.00872416e-01
6.25500000e+02	2.00331250e-01
6.26500000e+02	1.99803197e-01
6.27500000e+02	1.99287948e-01
6.28500000e+02	1.98785204e-01
6.29500000e+02	1.98294676e-01
6.30500000e+02	1.97816082e-01
6.31500000e+02	1.97349150e-01
6.32500000e+02	1.96893616e-01
6.33500000e+02	1.96449222e-01
6.34500000e+02	1.96015721e-01
6.35500000e+02	1.95592873e-01
6.36500000e+02	1.95180443e-01
6.37500000e+02	1.94778207e-01
6.38500000e+02	1.94385946e-01
6.39500000e+02	1.94003448e-01
6.40500000e+02	1.93630508e-01
6.41500000e+02	1.93266928e-01
6.42500000e+02	1.92912515e-01
6.43500000e+02	1.92567085e-01
6.44500000e+02	1.92230458e-01
6.45500000e+02	1.91902459e-01
6.46500000e+02	1.91582922e-01
6.47500000e+02	1.91271682e-01
6.48500000e+02	1.90968584e-01
6.49500000e+02	1.90673475e-01
6.50500000e+02	1.90386209e-01
6.51500000e+02	1.90106645e-01
6.52500000e+02	1.89834644e-01
6.53500000e+02	1.89570075e-01
6.54500000e+02	1.89312811e-01
6.55500000e+02	1.89062729e-01
6.56500000e+02	1.88819709e-01
6.57500000e+02	1.88583637e-01
6.58500000e+02	1.88354402e-01
6.59500000e+02	1.88131899e-01
6.60500000e+02	1.87916024e-01
