# Profil de Te au temps 1.600999999999999e-11 
# simu : /Volumes/MERCURE/JOBS/Zeq2_tanh_50mic_1p5e20_B0_20ps/GNU/Te@y-c.set
# col 0 : abscisse (um)
# col 1 : Te (keV)
5.00000000e-01	9.86506065e-01
1.50000000e+00	9.86504620e-01
2.50000000e+00	9.86501793e-01
3.50000000e+00	9.86497549e-01
4.50000000e+00	9.86491877e-01
5.50000000e+00	9.86484788e-01
6.50000000e+00	9.86476283e-01
7.50000000e+00	9.86466361e-01
8.50000000e+00	9.86455024e-01
9.50000000e+00	9.86442273e-01
1.05000000e+01	9.86428107e-01
1.15000000e+01	9.86412528e-01
1.25000000e+01	9.86395537e-01
1.35000000e+01	9.86377135e-01
1.45000000e+01	9.86357322e-01
1.55000000e+01	9.86336101e-01
1.65000000e+01	9.86313472e-01
1.75000000e+01	9.86289438e-01
1.85000000e+01	9.86263998e-01
1.95000000e+01	9.86237155e-01
2.05000000e+01	9.86208911e-01
2.15000000e+01	9.86179266e-01
2.25000000e+01	9.86148224e-01
2.35000000e+01	9.86115785e-01
2.45000000e+01	9.86081952e-01
2.55000000e+01	9.86046726e-01
2.65000000e+01	9.86010110e-01
2.75000000e+01	9.85972105e-01
2.85000000e+01	9.85932715e-01
2.95000000e+01	9.85891940e-01
3.05000000e+01	9.85849784e-01
3.15000000e+01	9.85806249e-01
3.25000000e+01	9.85761337e-01
3.35000000e+01	9.85715051e-01
3.45000000e+01	9.85667393e-01
3.55000000e+01	9.85618366e-01
3.65000000e+01	9.85567973e-01
3.75000000e+01	9.85516217e-01
3.85000000e+01	9.85463099e-01
3.95000000e+01	9.85408624e-01
4.05000000e+01	9.85352793e-01
4.15000000e+01	9.85295610e-01
4.25000000e+01	9.85237078e-01
4.35000000e+01	9.85177200e-01
4.45000000e+01	9.85115979e-01
4.55000000e+01	9.85053418e-01
4.65000000e+01	9.84989520e-01
4.75000000e+01	9.84924288e-01
4.85000000e+01	9.84857726e-01
4.95000000e+01	9.84789837e-01
5.05000000e+01	9.84720623e-01
5.15000000e+01	9.84650089e-01
5.25000000e+01	9.84578237e-01
5.35000000e+01	9.84505072e-01
5.45000000e+01	9.84430595e-01
5.55000000e+01	9.84354811e-01
5.65000000e+01	9.84277723e-01
5.75000000e+01	9.84199335e-01
5.85000000e+01	9.84119649e-01
5.95000000e+01	9.84038669e-01
6.05000000e+01	9.83956399e-01
6.15000000e+01	9.83872842e-01
6.25000000e+01	9.83788001e-01
6.35000000e+01	9.83701879e-01
6.45000000e+01	9.83614481e-01
6.55000000e+01	9.83525809e-01
6.65000000e+01	9.83435867e-01
6.75000000e+01	9.83344658e-01
6.85000000e+01	9.83252185e-01
6.95000000e+01	9.83158452e-01
7.05000000e+01	9.83063462e-01
7.15000000e+01	9.82967217e-01
7.25000000e+01	9.82869723e-01
7.35000000e+01	9.82770980e-01
7.45000000e+01	9.82670994e-01
7.55000000e+01	9.82569766e-01
7.65000000e+01	9.82467299e-01
7.75000000e+01	9.82363597e-01
7.85000000e+01	9.82258663e-01
7.95000000e+01	9.82152500e-01
8.05000000e+01	9.82045110e-01
8.15000000e+01	9.81936496e-01
8.25000000e+01	9.81826660e-01
8.35000000e+01	9.81715606e-01
8.45000000e+01	9.81603337e-01
8.55000000e+01	9.81489853e-01
8.65000000e+01	9.81375159e-01
8.75000000e+01	9.81259256e-01
8.85000000e+01	9.81142146e-01
8.95000000e+01	9.81023832e-01
9.05000000e+01	9.80904316e-01
9.15000000e+01	9.80783599e-01
9.25000000e+01	9.80661684e-01
9.35000000e+01	9.80538573e-01
9.45000000e+01	9.80414266e-01
9.55000000e+01	9.80288766e-01
9.65000000e+01	9.80162075e-01
9.75000000e+01	9.80034193e-01
9.85000000e+01	9.79905122e-01
9.95000000e+01	9.79774863e-01
1.00500000e+02	9.79643417e-01
1.01500000e+02	9.79510784e-01
1.02500000e+02	9.79376966e-01
1.03500000e+02	9.79241964e-01
1.04500000e+02	9.79105777e-01
1.05500000e+02	9.78968406e-01
1.06500000e+02	9.78829852e-01
1.07500000e+02	9.78690113e-01
1.08500000e+02	9.78549191e-01
1.09500000e+02	9.78407086e-01
1.10500000e+02	9.78263795e-01
1.11500000e+02	9.78119320e-01
1.12500000e+02	9.77973660e-01
1.13500000e+02	9.77826813e-01
1.14500000e+02	9.77678778e-01
1.15500000e+02	9.77529555e-01
1.16500000e+02	9.77379142e-01
1.17500000e+02	9.77227537e-01
1.18500000e+02	9.77074738e-01
1.19500000e+02	9.76920745e-01
1.20500000e+02	9.76765554e-01
1.21500000e+02	9.76609164e-01
1.22500000e+02	9.76451571e-01
1.23500000e+02	9.76292774e-01
1.24500000e+02	9.76132769e-01
1.25500000e+02	9.75971553e-01
1.26500000e+02	9.75809123e-01
1.27500000e+02	9.75645476e-01
1.28500000e+02	9.75480607e-01
1.29500000e+02	9.75314514e-01
1.30500000e+02	9.75147191e-01
1.31500000e+02	9.74978634e-01
1.32500000e+02	9.74808840e-01
1.33500000e+02	9.74637802e-01
1.34500000e+02	9.74465517e-01
1.35500000e+02	9.74291978e-01
1.36500000e+02	9.74117181e-01
1.37500000e+02	9.73941119e-01
1.38500000e+02	9.73763787e-01
1.39500000e+02	9.73585178e-01
1.40500000e+02	9.73405286e-01
1.41500000e+02	9.73224105e-01
1.42500000e+02	9.73041627e-01
1.43500000e+02	9.72857846e-01
1.44500000e+02	9.72672753e-01
1.45500000e+02	9.72486341e-01
1.46500000e+02	9.72298602e-01
1.47500000e+02	9.72109528e-01
1.48500000e+02	9.71919111e-01
1.49500000e+02	9.71727341e-01
1.50500000e+02	9.71534210e-01
1.51500000e+02	9.71339708e-01
1.52500000e+02	9.71143826e-01
1.53500000e+02	9.70946554e-01
1.54500000e+02	9.70747882e-01
1.55500000e+02	9.70547799e-01
1.56500000e+02	9.70346296e-01
1.57500000e+02	9.70143360e-01
1.58500000e+02	9.69938980e-01
1.59500000e+02	9.69733146e-01
1.60500000e+02	9.69525845e-01
1.61500000e+02	9.69317065e-01
1.62500000e+02	9.69106793e-01
1.63500000e+02	9.68895018e-01
1.64500000e+02	9.68681726e-01
1.65500000e+02	9.68466903e-01
1.66500000e+02	9.68250536e-01
1.67500000e+02	9.68032612e-01
1.68500000e+02	9.67813115e-01
1.69500000e+02	9.67592032e-01
1.70500000e+02	9.67369348e-01
1.71500000e+02	9.67145047e-01
1.72500000e+02	9.66919113e-01
1.73500000e+02	9.66691532e-01
1.74500000e+02	9.66462287e-01
1.75500000e+02	9.66231362e-01
1.76500000e+02	9.65998740e-01
1.77500000e+02	9.65764403e-01
1.78500000e+02	9.65528335e-01
1.79500000e+02	9.65290518e-01
1.80500000e+02	9.65050934e-01
1.81500000e+02	9.64809564e-01
1.82500000e+02	9.64566389e-01
1.83500000e+02	9.64321391e-01
1.84500000e+02	9.64074551e-01
1.85500000e+02	9.63825848e-01
1.86500000e+02	9.63575263e-01
1.87500000e+02	9.63322774e-01
1.88500000e+02	9.63068362e-01
1.89500000e+02	9.62812006e-01
1.90500000e+02	9.62553683e-01
1.91500000e+02	9.62293373e-01
1.92500000e+02	9.62031053e-01
1.93500000e+02	9.61766700e-01
1.94500000e+02	9.61500292e-01
1.95500000e+02	9.61231806e-01
1.96500000e+02	9.60961218e-01
1.97500000e+02	9.60688504e-01
1.98500000e+02	9.60413640e-01
1.99500000e+02	9.60136602e-01
2.00500000e+02	9.59857364e-01
2.01500000e+02	9.59575901e-01
2.02500000e+02	9.59292187e-01
2.03500000e+02	9.59006197e-01
2.04500000e+02	9.58717903e-01
2.05500000e+02	9.58427279e-01
2.06500000e+02	9.58134298e-01
2.07500000e+02	9.57838933e-01
2.08500000e+02	9.57541154e-01
2.09500000e+02	9.57240934e-01
2.10500000e+02	9.56938244e-01
2.11500000e+02	9.56633055e-01
2.12500000e+02	9.56325337e-01
2.13500000e+02	9.56015060e-01
2.14500000e+02	9.55702194e-01
2.15500000e+02	9.55386709e-01
2.16500000e+02	9.55068572e-01
2.17500000e+02	9.54747752e-01
2.18500000e+02	9.54424218e-01
2.19500000e+02	9.54097937e-01
2.20500000e+02	9.53768876e-01
2.21500000e+02	9.53437001e-01
2.22500000e+02	9.53102280e-01
2.23500000e+02	9.52764677e-01
2.24500000e+02	9.52424158e-01
2.25500000e+02	9.52080689e-01
2.26500000e+02	9.51734233e-01
2.27500000e+02	9.51384755e-01
2.28500000e+02	9.51032218e-01
2.29500000e+02	9.50676585e-01
2.30500000e+02	9.50317819e-01
2.31500000e+02	9.49955883e-01
2.32500000e+02	9.49590737e-01
2.33500000e+02	9.49222343e-01
2.34500000e+02	9.48850662e-01
2.35500000e+02	9.48475654e-01
2.36500000e+02	9.48097278e-01
2.37500000e+02	9.47715494e-01
2.38500000e+02	9.47330261e-01
2.39500000e+02	9.46941536e-01
2.40500000e+02	9.46549277e-01
2.41500000e+02	9.46153442e-01
2.42500000e+02	9.45753987e-01
2.43500000e+02	9.45350867e-01
2.44500000e+02	9.44944039e-01
2.45500000e+02	9.44533457e-01
2.46500000e+02	9.44119075e-01
2.47500000e+02	9.43700848e-01
2.48500000e+02	9.43278728e-01
2.49500000e+02	9.42852669e-01
2.50500000e+02	9.42422621e-01
2.51500000e+02	9.41988537e-01
2.52500000e+02	9.41550366e-01
2.53500000e+02	9.41108060e-01
2.54500000e+02	9.40661568e-01
2.55500000e+02	9.40210838e-01
2.56500000e+02	9.39755819e-01
2.57500000e+02	9.39296459e-01
2.58500000e+02	9.38832703e-01
2.59500000e+02	9.38364499e-01
2.60500000e+02	9.37891792e-01
2.61500000e+02	9.37414526e-01
2.62500000e+02	9.36932646e-01
2.63500000e+02	9.36446095e-01
2.64500000e+02	9.35954816e-01
2.65500000e+02	9.35458750e-01
2.66500000e+02	9.34957840e-01
2.67500000e+02	9.34452025e-01
2.68500000e+02	9.33941245e-01
2.69500000e+02	9.33425439e-01
2.70500000e+02	9.32904546e-01
2.71500000e+02	9.32378501e-01
2.72500000e+02	9.31847243e-01
2.73500000e+02	9.31310706e-01
2.74500000e+02	9.30768826e-01
2.75500000e+02	9.30221536e-01
2.76500000e+02	9.29668770e-01
2.77500000e+02	9.29110461e-01
2.78500000e+02	9.28546539e-01
2.79500000e+02	9.27976935e-01
2.80500000e+02	9.27401579e-01
2.81500000e+02	9.26820400e-01
2.82500000e+02	9.26233325e-01
2.83500000e+02	9.25640282e-01
2.84500000e+02	9.25041197e-01
2.85500000e+02	9.24435994e-01
2.86500000e+02	9.23824598e-01
2.87500000e+02	9.23206932e-01
2.88500000e+02	9.22582919e-01
2.89500000e+02	9.21952478e-01
2.90500000e+02	9.21315531e-01
2.91500000e+02	9.20671997e-01
2.92500000e+02	9.20021793e-01
2.93500000e+02	9.19364837e-01
2.94500000e+02	9.18701045e-01
2.95500000e+02	9.18030332e-01
2.96500000e+02	9.17352612e-01
2.97500000e+02	9.16667798e-01
2.98500000e+02	9.15975801e-01
2.99500000e+02	9.15276531e-01
3.00500000e+02	9.14569900e-01
3.01500000e+02	9.13855814e-01
3.02500000e+02	9.13134181e-01
3.03500000e+02	9.12404908e-01
3.04500000e+02	9.11667898e-01
3.05500000e+02	9.10923057e-01
3.06500000e+02	9.10170286e-01
3.07500000e+02	9.09409487e-01
3.08500000e+02	9.08640560e-01
3.09500000e+02	9.07863404e-01
3.10500000e+02	9.07077917e-01
3.11500000e+02	9.06283996e-01
3.12500000e+02	9.05481535e-01
3.13500000e+02	9.04670429e-01
3.14500000e+02	9.03850571e-01
3.15500000e+02	9.03021852e-01
3.16500000e+02	9.02184162e-01
3.17500000e+02	9.01337391e-01
3.18500000e+02	9.00481427e-01
3.19500000e+02	8.99616155e-01
3.20500000e+02	8.98741461e-01
3.21500000e+02	8.97857229e-01
3.22500000e+02	8.96963342e-01
3.23500000e+02	8.96059680e-01
3.24500000e+02	8.95146123e-01
3.25500000e+02	8.94222551e-01
3.26500000e+02	8.93288840e-01
3.27500000e+02	8.92344866e-01
3.28500000e+02	8.91390505e-01
3.29500000e+02	8.90425629e-01
3.30500000e+02	8.89450110e-01
3.31500000e+02	8.88463819e-01
3.32500000e+02	8.87466625e-01
3.33500000e+02	8.86458396e-01
3.34500000e+02	8.85438999e-01
3.35500000e+02	8.84408300e-01
3.36500000e+02	8.83366161e-01
3.37500000e+02	8.82312446e-01
3.38500000e+02	8.81247016e-01
3.39500000e+02	8.80169731e-01
3.40500000e+02	8.79080450e-01
3.41500000e+02	8.77979031e-01
3.42500000e+02	8.76865329e-01
3.43500000e+02	8.75739199e-01
3.44500000e+02	8.74600495e-01
3.45500000e+02	8.73449069e-01
3.46500000e+02	8.72284773e-01
3.47500000e+02	8.71107455e-01
3.48500000e+02	8.69916966e-01
3.49500000e+02	8.68713152e-01
3.50500000e+02	8.67495859e-01
3.51500000e+02	8.66264933e-01
3.52500000e+02	8.65020218e-01
3.53500000e+02	8.63761555e-01
3.54500000e+02	8.62488788e-01
3.55500000e+02	8.61201757e-01
3.56500000e+02	8.59900300e-01
3.57500000e+02	8.58584258e-01
3.58500000e+02	8.57253466e-01
3.59500000e+02	8.55907763e-01
3.60500000e+02	8.54546982e-01
3.61500000e+02	8.53170960e-01
3.62500000e+02	8.51779530e-01
3.63500000e+02	8.50372524e-01
3.64500000e+02	8.48949775e-01
3.65500000e+02	8.47511114e-01
3.66500000e+02	8.46056373e-01
3.67500000e+02	8.44585380e-01
3.68500000e+02	8.43097965e-01
3.69500000e+02	8.41593957e-01
3.70500000e+02	8.40073185e-01
3.71500000e+02	8.38535475e-01
3.72500000e+02	8.36980654e-01
3.73500000e+02	8.35408551e-01
3.74500000e+02	8.33818991e-01
3.75500000e+02	8.32211800e-01
3.76500000e+02	8.30586805e-01
3.77500000e+02	8.28943830e-01
3.78500000e+02	8.27282703e-01
3.79500000e+02	8.25603248e-01
3.80500000e+02	8.23905291e-01
3.81500000e+02	8.22188658e-01
3.82500000e+02	8.20453175e-01
3.83500000e+02	8.18698668e-01
3.84500000e+02	8.16924964e-01
3.85500000e+02	8.15131889e-01
3.86500000e+02	8.13319270e-01
3.87500000e+02	8.11486937e-01
3.88500000e+02	8.09634717e-01
3.89500000e+02	8.07762439e-01
3.90500000e+02	8.05869934e-01
3.91500000e+02	8.03957032e-01
3.92500000e+02	8.02023565e-01
3.93500000e+02	8.00069368e-01
3.94500000e+02	7.98094272e-01
3.95500000e+02	7.96098115e-01
3.96500000e+02	7.94080733e-01
3.97500000e+02	7.92041964e-01
3.98500000e+02	7.89981647e-01
3.99500000e+02	7.87899626e-01
4.00500000e+02	7.85795741e-01
4.01500000e+02	7.83669840e-01
4.02500000e+02	7.81521769e-01
4.03500000e+02	7.79351377e-01
4.04500000e+02	7.77158516e-01
4.05500000e+02	7.74943039e-01
4.06500000e+02	7.72704802e-01
4.07500000e+02	7.70443665e-01
4.08500000e+02	7.68159489e-01
4.09500000e+02	7.65852138e-01
4.10500000e+02	7.63521478e-01
4.11500000e+02	7.61167380e-01
4.12500000e+02	7.58789718e-01
4.13500000e+02	7.56388368e-01
4.14500000e+02	7.53963209e-01
4.15500000e+02	7.51514125e-01
4.16500000e+02	7.49041003e-01
4.17500000e+02	7.46543734e-01
4.18500000e+02	7.44022213e-01
4.19500000e+02	7.41476337e-01
4.20500000e+02	7.38906011e-01
4.21500000e+02	7.36311141e-01
4.22500000e+02	7.33691639e-01
4.23500000e+02	7.31047421e-01
4.24500000e+02	7.28378407e-01
4.25500000e+02	7.25684523e-01
4.26500000e+02	7.22965699e-01
4.27500000e+02	7.20221872e-01
4.28500000e+02	7.17452981e-01
4.29500000e+02	7.14658973e-01
4.30500000e+02	7.11839800e-01
4.31500000e+02	7.08995418e-01
4.32500000e+02	7.06125791e-01
4.33500000e+02	7.03230887e-01
4.34500000e+02	7.00310681e-01
4.35500000e+02	6.97365154e-01
4.36500000e+02	6.94394294e-01
4.37500000e+02	6.91398095e-01
4.38500000e+02	6.88376557e-01
4.39500000e+02	6.85329688e-01
4.40500000e+02	6.82257501e-01
4.41500000e+02	6.79160018e-01
4.42500000e+02	6.76037268e-01
4.43500000e+02	6.72889287e-01
4.44500000e+02	6.69716118e-01
4.45500000e+02	6.66517814e-01
4.46500000e+02	6.63294433e-01
4.47500000e+02	6.60046043e-01
4.48500000e+02	6.56772721e-01
4.49500000e+02	6.53474551e-01
4.50500000e+02	6.50151625e-01
4.51500000e+02	6.46804047e-01
4.52500000e+02	6.43431928e-01
4.53500000e+02	6.40035389e-01
4.54500000e+02	6.36614560e-01
4.55500000e+02	6.33169583e-01
4.56500000e+02	6.29700606e-01
4.57500000e+02	6.26207793e-01
4.58500000e+02	6.22691314e-01
4.59500000e+02	6.19151352e-01
4.60500000e+02	6.15588102e-01
4.61500000e+02	6.12001769e-01
4.62500000e+02	6.08392570e-01
4.63500000e+02	6.04760737e-01
4.64500000e+02	6.01106511e-01
4.65500000e+02	5.97430148e-01
4.66500000e+02	5.93731918e-01
4.67500000e+02	5.90012102e-01
4.68500000e+02	5.86270999e-01
4.69500000e+02	5.82508920e-01
4.70500000e+02	5.78726192e-01
4.71500000e+02	5.74923156e-01
4.72500000e+02	5.71100173e-01
4.73500000e+02	5.67257616e-01
4.74500000e+02	5.63395877e-01
4.75500000e+02	5.59515367e-01
4.76500000e+02	5.55616513e-01
4.77500000e+02	5.51699760e-01
4.78500000e+02	5.47765576e-01
4.79500000e+02	5.43814444e-01
4.80500000e+02	5.39846871e-01
4.81500000e+02	5.35863384e-01
4.82500000e+02	5.31864530e-01
4.83500000e+02	5.27850880e-01
4.84500000e+02	5.23823026e-01
4.85500000e+02	5.19781587e-01
4.86500000e+02	5.15727201e-01
4.87500000e+02	5.11660534e-01
4.88500000e+02	5.07582276e-01
4.89500000e+02	5.03493143e-01
4.90500000e+02	4.99393878e-01
4.91500000e+02	4.95285248e-01
4.92500000e+02	4.91168051e-01
4.93500000e+02	4.87043110e-01
4.94500000e+02	4.82911278e-01
4.95500000e+02	4.78773435e-01
4.96500000e+02	4.74630491e-01
4.97500000e+02	4.70483385e-01
4.98500000e+02	4.66333084e-01
4.99500000e+02	4.62180588e-01
5.00500000e+02	4.58026922e-01
5.01500000e+02	4.53873144e-01
5.02500000e+02	4.49720340e-01
5.03500000e+02	4.45569625e-01
5.04500000e+02	4.41422144e-01
5.05500000e+02	4.37279069e-01
5.06500000e+02	4.33141600e-01
5.07500000e+02	4.29010965e-01
5.08500000e+02	4.24888416e-01
5.09500000e+02	4.20775233e-01
5.10500000e+02	4.16672716e-01
5.11500000e+02	4.12582192e-01
5.12500000e+02	4.08505005e-01
5.13500000e+02	4.04442520e-01
5.14500000e+02	4.00396121e-01
5.15500000e+02	3.96367203e-01
5.16500000e+02	3.92357178e-01
5.17500000e+02	3.88367467e-01
5.18500000e+02	3.84399500e-01
5.19500000e+02	3.80454709e-01
5.20500000e+02	3.76534532e-01
5.21500000e+02	3.72640405e-01
5.22500000e+02	3.68773760e-01
5.23500000e+02	3.64936021e-01
5.24500000e+02	3.61128600e-01
5.25500000e+02	3.57352898e-01
5.26500000e+02	3.53610295e-01
5.27500000e+02	3.49902149e-01
5.28500000e+02	3.46229794e-01
5.29500000e+02	3.42594533e-01
5.30500000e+02	3.38997637e-01
5.31500000e+02	3.35440339e-01
5.32500000e+02	3.31923832e-01
5.33500000e+02	3.28449264e-01
5.34500000e+02	3.25017737e-01
5.35500000e+02	3.21630301e-01
5.36500000e+02	3.18287951e-01
5.37500000e+02	3.14991627e-01
5.38500000e+02	3.11742209e-01
5.39500000e+02	3.08540513e-01
5.40500000e+02	3.05387294e-01
5.41500000e+02	3.02283238e-01
5.42500000e+02	2.99228966e-01
5.43500000e+02	2.96225028e-01
5.44500000e+02	2.93271906e-01
5.45500000e+02	2.90370010e-01
5.46500000e+02	2.87519680e-01
5.47500000e+02	2.84721187e-01
5.48500000e+02	2.81974731e-01
5.49500000e+02	2.79280440e-01
5.50500000e+02	2.76638378e-01
5.51500000e+02	2.74048539e-01
5.52500000e+02	2.71510852e-01
5.53500000e+02	2.69025185e-01
5.54500000e+02	2.66591340e-01
5.55500000e+02	2.64209063e-01
5.56500000e+02	2.61878043e-01
5.57500000e+02	2.59597913e-01
5.58500000e+02	2.57368258e-01
5.59500000e+02	2.55188612e-01
5.60500000e+02	2.53058464e-01
5.61500000e+02	2.50977261e-01
5.62500000e+02	2.48944412e-01
5.63500000e+02	2.46959287e-01
5.64500000e+02	2.45021227e-01
5.65500000e+02	2.43129540e-01
5.66500000e+02	2.41283508e-01
5.67500000e+02	2.39482390e-01
5.68500000e+02	2.37725423e-01
5.69500000e+02	2.36011827e-01
5.70500000e+02	2.34340806e-01
5.71500000e+02	2.32711552e-01
5.72500000e+02	2.31123246e-01
5.73500000e+02	2.29575062e-01
5.74500000e+02	2.28066167e-01
5.75500000e+02	2.26595728e-01
5.76500000e+02	2.25162908e-01
5.77500000e+02	2.23766871e-01
5.78500000e+02	2.22406783e-01
5.79500000e+02	2.21081816e-01
5.80500000e+02	2.19791145e-01
5.81500000e+02	2.18533952e-01
5.82500000e+02	2.17309429e-01
5.83500000e+02	2.16116776e-01
5.84500000e+02	2.14955202e-01
5.85500000e+02	2.13823929e-01
5.86500000e+02	2.12722190e-01
5.87500000e+02	2.11649229e-01
5.88500000e+02	2.10604306e-01
5.89500000e+02	2.09586693e-01
5.90500000e+02	2.08595675e-01
5.91500000e+02	2.07630555e-01
5.92500000e+02	2.06690646e-01
5.93500000e+02	2.05775280e-01
5.94500000e+02	2.04883802e-01
5.95500000e+02	2.04015572e-01
5.96500000e+02	2.03169965e-01
5.97500000e+02	2.02346374e-01
5.98500000e+02	2.01544204e-01
5.99500000e+02	2.00762877e-01
6.00500000e+02	2.00001828e-01
6.01500000e+02	1.99260509e-01
6.02500000e+02	1.98538386e-01
6.03500000e+02	1.97834940e-01
6.04500000e+02	1.97149664e-01
6.05500000e+02	1.96482068e-01
6.06500000e+02	1.95831674e-01
6.07500000e+02	1.95198019e-01
6.08500000e+02	1.94580651e-01
6.09500000e+02	1.93979135e-01
6.10500000e+02	1.93393044e-01
6.11500000e+02	1.92821966e-01
6.12500000e+02	1.92265502e-01
6.13500000e+02	1.91723264e-01
6.14500000e+02	1.91194874e-01
6.15500000e+02	1.90679968e-01
6.16500000e+02	1.90178191e-01
6.17500000e+02	1.89689200e-01
6.18500000e+02	1.89212661e-01
6.19500000e+02	1.88748252e-01
6.20500000e+02	1.88295659e-01
6.21500000e+02	1.87854579e-01
6.22500000e+02	1.87424718e-01
6.23500000e+02	1.87005790e-01
6.24500000e+02	1.86597519e-01
6.25500000e+02	1.86199637e-01
6.26500000e+02	1.85811885e-01
6.27500000e+02	1.85434010e-01
6.28500000e+02	1.85065770e-01
6.29500000e+02	1.84706927e-01
6.30500000e+02	1.84357252e-01
6.31500000e+02	1.84016525e-01
6.32500000e+02	1.83684530e-01
6.33500000e+02	1.83361058e-01
6.34500000e+02	1.83045908e-01
6.35500000e+02	1.82738885e-01
6.36500000e+02	1.82439799e-01
6.37500000e+02	1.82148466e-01
6.38500000e+02	1.81864710e-01
6.39500000e+02	1.81588357e-01
6.40500000e+02	1.81319242e-01
6.41500000e+02	1.81057202e-01
6.42500000e+02	1.80802081e-01
6.43500000e+02	1.80553728e-01
6.44500000e+02	1.80311997e-01
6.45500000e+02	1.80076746e-01
6.46500000e+02	1.79847837e-01
6.47500000e+02	1.79625137e-01
6.48500000e+02	1.79408518e-01
6.49500000e+02	1.79197854e-01
6.50500000e+02	1.78993027e-01
6.51500000e+02	1.78793919e-01
6.52500000e+02	1.78600417e-01
6.53500000e+02	1.78412413e-01
6.54500000e+02	1.78229802e-01
6.55500000e+02	1.78052481e-01
6.56500000e+02	1.77880353e-01
6.57500000e+02	1.77713323e-01
6.58500000e+02	1.77551299e-01
6.59500000e+02	1.77394194e-01
6.60500000e+02	1.77241921e-01
