# Profil de Te au temps 1.300000000000017e-11 
# simu : /Volumes/MERCURE/JOBS/Zeq2_tanh_50mic_1p5e20_B0_20ps/GNU/Te@y-c.set
# col 0 : abscisse (um)
# col 1 : Te (keV)
5.00000000e-01	9.96154433e-01
1.50000000e+00	9.96153045e-01
2.50000000e+00	9.96150292e-01
3.50000000e+00	9.96146159e-01
4.50000000e+00	9.96140645e-01
5.50000000e+00	9.96133751e-01
6.50000000e+00	9.96125479e-01
7.50000000e+00	9.96115827e-01
8.50000000e+00	9.96104797e-01
9.50000000e+00	9.96092387e-01
1.05000000e+01	9.96078598e-01
1.15000000e+01	9.96063429e-01
1.25000000e+01	9.96046880e-01
1.35000000e+01	9.96028951e-01
1.45000000e+01	9.96009642e-01
1.55000000e+01	9.95988952e-01
1.65000000e+01	9.95966882e-01
1.75000000e+01	9.95943430e-01
1.85000000e+01	9.95918596e-01
1.95000000e+01	9.95892381e-01
2.05000000e+01	9.95864783e-01
2.15000000e+01	9.95835803e-01
2.25000000e+01	9.95805440e-01
2.35000000e+01	9.95773693e-01
2.45000000e+01	9.95740563e-01
2.55000000e+01	9.95706048e-01
2.65000000e+01	9.95670149e-01
2.75000000e+01	9.95632865e-01
2.85000000e+01	9.95594195e-01
2.95000000e+01	9.95554139e-01
3.05000000e+01	9.95512697e-01
3.15000000e+01	9.95469868e-01
3.25000000e+01	9.95425651e-01
3.35000000e+01	9.95380047e-01
3.45000000e+01	9.95333055e-01
3.55000000e+01	9.95284673e-01
3.65000000e+01	9.95234903e-01
3.75000000e+01	9.95183742e-01
3.85000000e+01	9.95131192e-01
3.95000000e+01	9.95077250e-01
4.05000000e+01	9.95021918e-01
4.15000000e+01	9.94965194e-01
4.25000000e+01	9.94907078e-01
4.35000000e+01	9.94847569e-01
4.45000000e+01	9.94786668e-01
4.55000000e+01	9.94724373e-01
4.65000000e+01	9.94660684e-01
4.75000000e+01	9.94595601e-01
4.85000000e+01	9.94529123e-01
4.95000000e+01	9.94461250e-01
5.05000000e+01	9.94391982e-01
5.15000000e+01	9.94321318e-01
5.25000000e+01	9.94249258e-01
5.35000000e+01	9.94175801e-01
5.45000000e+01	9.94100948e-01
5.55000000e+01	9.94024697e-01
5.65000000e+01	9.93947050e-01
5.75000000e+01	9.93868004e-01
5.85000000e+01	9.93787561e-01
5.95000000e+01	9.93705720e-01
6.05000000e+01	9.93622481e-01
6.15000000e+01	9.93537843e-01
6.25000000e+01	9.93451807e-01
6.35000000e+01	9.93364372e-01
6.45000000e+01	9.93275539e-01
6.55000000e+01	9.93185307e-01
6.65000000e+01	9.93093676e-01
6.75000000e+01	9.93000646e-01
6.85000000e+01	9.92906218e-01
6.95000000e+01	9.92810391e-01
7.05000000e+01	9.92713165e-01
7.15000000e+01	9.92614541e-01
7.25000000e+01	9.92514519e-01
7.35000000e+01	9.92413098e-01
7.45000000e+01	9.92310280e-01
7.55000000e+01	9.92206064e-01
7.65000000e+01	9.92100450e-01
7.75000000e+01	9.91993440e-01
7.85000000e+01	9.91885033e-01
7.95000000e+01	9.91775229e-01
8.05000000e+01	9.91664030e-01
8.15000000e+01	9.91551435e-01
8.25000000e+01	9.91437445e-01
8.35000000e+01	9.91322060e-01
8.45000000e+01	9.91205282e-01
8.55000000e+01	9.91087110e-01
8.65000000e+01	9.90967545e-01
8.75000000e+01	9.90846588e-01
8.85000000e+01	9.90724240e-01
8.95000000e+01	9.90600500e-01
9.05000000e+01	9.90475371e-01
9.15000000e+01	9.90348852e-01
9.25000000e+01	9.90220945e-01
9.35000000e+01	9.90091650e-01
9.45000000e+01	9.89960967e-01
9.55000000e+01	9.89828899e-01
9.65000000e+01	9.89695445e-01
9.75000000e+01	9.89560607e-01
9.85000000e+01	9.89424386e-01
9.95000000e+01	9.89286782e-01
1.00500000e+02	9.89147797e-01
1.01500000e+02	9.89007430e-01
1.02500000e+02	9.88865685e-01
1.03500000e+02	9.88722560e-01
1.04500000e+02	9.88578058e-01
1.05500000e+02	9.88432180e-01
1.06500000e+02	9.88284926e-01
1.07500000e+02	9.88136297e-01
1.08500000e+02	9.87986295e-01
1.09500000e+02	9.87834921e-01
1.10500000e+02	9.87682175e-01
1.11500000e+02	9.87528059e-01
1.12500000e+02	9.87372573e-01
1.13500000e+02	9.87215719e-01
1.14500000e+02	9.87057498e-01
1.15500000e+02	9.86897911e-01
1.16500000e+02	9.86736959e-01
1.17500000e+02	9.86574642e-01
1.18500000e+02	9.86410962e-01
1.19500000e+02	9.86245919e-01
1.20500000e+02	9.86079515e-01
1.21500000e+02	9.85911751e-01
1.22500000e+02	9.85742627e-01
1.23500000e+02	9.85572143e-01
1.24500000e+02	9.85400302e-01
1.25500000e+02	9.85227103e-01
1.26500000e+02	9.85052547e-01
1.27500000e+02	9.84876636e-01
1.28500000e+02	9.84699368e-01
1.29500000e+02	9.84520746e-01
1.30500000e+02	9.84340769e-01
1.31500000e+02	9.84159438e-01
1.32500000e+02	9.83976753e-01
1.33500000e+02	9.83792715e-01
1.34500000e+02	9.83607323e-01
1.35500000e+02	9.83420577e-01
1.36500000e+02	9.83232479e-01
1.37500000e+02	9.83043027e-01
1.38500000e+02	9.82852221e-01
1.39500000e+02	9.82660061e-01
1.40500000e+02	9.82466548e-01
1.41500000e+02	9.82271679e-01
1.42500000e+02	9.82075455e-01
1.43500000e+02	9.81877875e-01
1.44500000e+02	9.81678939e-01
1.45500000e+02	9.81478644e-01
1.46500000e+02	9.81276990e-01
1.47500000e+02	9.81073976e-01
1.48500000e+02	9.80869601e-01
1.49500000e+02	9.80663862e-01
1.50500000e+02	9.80456759e-01
1.51500000e+02	9.80248288e-01
1.52500000e+02	9.80038450e-01
1.53500000e+02	9.79827240e-01
1.54500000e+02	9.79614657e-01
1.55500000e+02	9.79400698e-01
1.56500000e+02	9.79185360e-01
1.57500000e+02	9.78968641e-01
1.58500000e+02	9.78750537e-01
1.59500000e+02	9.78531046e-01
1.60500000e+02	9.78310162e-01
1.61500000e+02	9.78087884e-01
1.62500000e+02	9.77864206e-01
1.63500000e+02	9.77639124e-01
1.64500000e+02	9.77412635e-01
1.65500000e+02	9.77184732e-01
1.66500000e+02	9.76955413e-01
1.67500000e+02	9.76724670e-01
1.68500000e+02	9.76492499e-01
1.69500000e+02	9.76258893e-01
1.70500000e+02	9.76023848e-01
1.71500000e+02	9.75787356e-01
1.72500000e+02	9.75549410e-01
1.73500000e+02	9.75310005e-01
1.74500000e+02	9.75069132e-01
1.75500000e+02	9.74826785e-01
1.76500000e+02	9.74582955e-01
1.77500000e+02	9.74337634e-01
1.78500000e+02	9.74090814e-01
1.79500000e+02	9.73842486e-01
1.80500000e+02	9.73592641e-01
1.81500000e+02	9.73341268e-01
1.82500000e+02	9.73088359e-01
1.83500000e+02	9.72833903e-01
1.84500000e+02	9.72577889e-01
1.85500000e+02	9.72320307e-01
1.86500000e+02	9.72061145e-01
1.87500000e+02	9.71800391e-01
1.88500000e+02	9.71538033e-01
1.89500000e+02	9.71274058e-01
1.90500000e+02	9.71008454e-01
1.91500000e+02	9.70741207e-01
1.92500000e+02	9.70472302e-01
1.93500000e+02	9.70201726e-01
1.94500000e+02	9.69929463e-01
1.95500000e+02	9.69655499e-01
1.96500000e+02	9.69379817e-01
1.97500000e+02	9.69102402e-01
1.98500000e+02	9.68823237e-01
1.99500000e+02	9.68542304e-01
2.00500000e+02	9.68259586e-01
2.01500000e+02	9.67975064e-01
2.02500000e+02	9.67688721e-01
2.03500000e+02	9.67400537e-01
2.04500000e+02	9.67110491e-01
2.05500000e+02	9.66818565e-01
2.06500000e+02	9.66524737e-01
2.07500000e+02	9.66228985e-01
2.08500000e+02	9.65931288e-01
2.09500000e+02	9.65631624e-01
2.10500000e+02	9.65329968e-01
2.11500000e+02	9.65026299e-01
2.12500000e+02	9.64720591e-01
2.13500000e+02	9.64412819e-01
2.14500000e+02	9.64102959e-01
2.15500000e+02	9.63790984e-01
2.16500000e+02	9.63476868e-01
2.17500000e+02	9.63160583e-01
2.18500000e+02	9.62842101e-01
2.19500000e+02	9.62521395e-01
2.20500000e+02	9.62198434e-01
2.21500000e+02	9.61873189e-01
2.22500000e+02	9.61545630e-01
2.23500000e+02	9.61215724e-01
2.24500000e+02	9.60883442e-01
2.25500000e+02	9.60548749e-01
2.26500000e+02	9.60211613e-01
2.27500000e+02	9.59871999e-01
2.28500000e+02	9.59529874e-01
2.29500000e+02	9.59185202e-01
2.30500000e+02	9.58837946e-01
2.31500000e+02	9.58488070e-01
2.32500000e+02	9.58135537e-01
2.33500000e+02	9.57780308e-01
2.34500000e+02	9.57422345e-01
2.35500000e+02	9.57061606e-01
2.36500000e+02	9.56698053e-01
2.37500000e+02	9.56331643e-01
2.38500000e+02	9.55962335e-01
2.39500000e+02	9.55590085e-01
2.40500000e+02	9.55214850e-01
2.41500000e+02	9.54836586e-01
2.42500000e+02	9.54455247e-01
2.43500000e+02	9.54070787e-01
2.44500000e+02	9.53683159e-01
2.45500000e+02	9.53292316e-01
2.46500000e+02	9.52898209e-01
2.47500000e+02	9.52500788e-01
2.48500000e+02	9.52100004e-01
2.49500000e+02	9.51695804e-01
2.50500000e+02	9.51288138e-01
2.51500000e+02	9.50876951e-01
2.52500000e+02	9.50462191e-01
2.53500000e+02	9.50043803e-01
2.54500000e+02	9.49621732e-01
2.55500000e+02	9.49195919e-01
2.56500000e+02	9.48766310e-01
2.57500000e+02	9.48332844e-01
2.58500000e+02	9.47895463e-01
2.59500000e+02	9.47454107e-01
2.60500000e+02	9.47008715e-01
2.61500000e+02	9.46559224e-01
2.62500000e+02	9.46105572e-01
2.63500000e+02	9.45647694e-01
2.64500000e+02	9.45185525e-01
2.65500000e+02	9.44719000e-01
2.66500000e+02	9.44248052e-01
2.67500000e+02	9.43772612e-01
2.68500000e+02	9.43292612e-01
2.69500000e+02	9.42807981e-01
2.70500000e+02	9.42318648e-01
2.71500000e+02	9.41824542e-01
2.72500000e+02	9.41325589e-01
2.73500000e+02	9.40821715e-01
2.74500000e+02	9.40312844e-01
2.75500000e+02	9.39798900e-01
2.76500000e+02	9.39279806e-01
2.77500000e+02	9.38755483e-01
2.78500000e+02	9.38225850e-01
2.79500000e+02	9.37690828e-01
2.80500000e+02	9.37150334e-01
2.81500000e+02	9.36604285e-01
2.82500000e+02	9.36052596e-01
2.83500000e+02	9.35495182e-01
2.84500000e+02	9.34931957e-01
2.85500000e+02	9.34362831e-01
2.86500000e+02	9.33787716e-01
2.87500000e+02	9.33206521e-01
2.88500000e+02	9.32619156e-01
2.89500000e+02	9.32025525e-01
2.90500000e+02	9.31425537e-01
2.91500000e+02	9.30819094e-01
2.92500000e+02	9.30206100e-01
2.93500000e+02	9.29586457e-01
2.94500000e+02	9.28960065e-01
2.95500000e+02	9.28326823e-01
2.96500000e+02	9.27686629e-01
2.97500000e+02	9.27039380e-01
2.98500000e+02	9.26384970e-01
2.99500000e+02	9.25723293e-01
3.00500000e+02	9.25054241e-01
3.01500000e+02	9.24377705e-01
3.02500000e+02	9.23693573e-01
3.03500000e+02	9.23001734e-01
3.04500000e+02	9.22302073e-01
3.05500000e+02	9.21594476e-01
3.06500000e+02	9.20878825e-01
3.07500000e+02	9.20155003e-01
3.08500000e+02	9.19422888e-01
3.09500000e+02	9.18682360e-01
3.10500000e+02	9.17933295e-01
3.11500000e+02	9.17175569e-01
3.12500000e+02	9.16409055e-01
3.13500000e+02	9.15633626e-01
3.14500000e+02	9.14849150e-01
3.15500000e+02	9.14055498e-01
3.16500000e+02	9.13252536e-01
3.17500000e+02	9.12440129e-01
3.18500000e+02	9.11618140e-01
3.19500000e+02	9.10786432e-01
3.20500000e+02	9.09944864e-01
3.21500000e+02	9.09093294e-01
3.22500000e+02	9.08231580e-01
3.23500000e+02	9.07359574e-01
3.24500000e+02	9.06477131e-01
3.25500000e+02	9.05584102e-01
3.26500000e+02	9.04680334e-01
3.27500000e+02	9.03765676e-01
3.28500000e+02	9.02839973e-01
3.29500000e+02	9.01903068e-01
3.30500000e+02	9.00954803e-01
3.31500000e+02	8.99995018e-01
3.32500000e+02	8.99023551e-01
3.33500000e+02	8.98040237e-01
3.34500000e+02	8.97044911e-01
3.35500000e+02	8.96037404e-01
3.36500000e+02	8.95017547e-01
3.37500000e+02	8.93985167e-01
3.38500000e+02	8.92940092e-01
3.39500000e+02	8.91882145e-01
3.40500000e+02	8.90811149e-01
3.41500000e+02	8.89726924e-01
3.42500000e+02	8.88629289e-01
3.43500000e+02	8.87518060e-01
3.44500000e+02	8.86393052e-01
3.45500000e+02	8.85254078e-01
3.46500000e+02	8.84100948e-01
3.47500000e+02	8.82933471e-01
3.48500000e+02	8.81751454e-01
3.49500000e+02	8.80554703e-01
3.50500000e+02	8.79343020e-01
3.51500000e+02	8.78116207e-01
3.52500000e+02	8.76874063e-01
3.53500000e+02	8.75616387e-01
3.54500000e+02	8.74342973e-01
3.55500000e+02	8.73053616e-01
3.56500000e+02	8.71748109e-01
3.57500000e+02	8.70426241e-01
3.58500000e+02	8.69087803e-01
3.59500000e+02	8.67732581e-01
3.60500000e+02	8.66360361e-01
3.61500000e+02	8.64970926e-01
3.62500000e+02	8.63564061e-01
3.63500000e+02	8.62139545e-01
3.64500000e+02	8.60697159e-01
3.65500000e+02	8.59236680e-01
3.66500000e+02	8.57757886e-01
3.67500000e+02	8.56260551e-01
3.68500000e+02	8.54744451e-01
3.69500000e+02	8.53209358e-01
3.70500000e+02	8.51655045e-01
3.71500000e+02	8.50081282e-01
3.72500000e+02	8.48487839e-01
3.73500000e+02	8.46874487e-01
3.74500000e+02	8.45240992e-01
3.75500000e+02	8.43587122e-01
3.76500000e+02	8.41912645e-01
3.77500000e+02	8.40217327e-01
3.78500000e+02	8.38500933e-01
3.79500000e+02	8.36763229e-01
3.80500000e+02	8.35003980e-01
3.81500000e+02	8.33222951e-01
3.82500000e+02	8.31419908e-01
3.83500000e+02	8.29594614e-01
3.84500000e+02	8.27746836e-01
3.85500000e+02	8.25876338e-01
3.86500000e+02	8.23982886e-01
3.87500000e+02	8.22066247e-01
3.88500000e+02	8.20126187e-01
3.89500000e+02	8.18162474e-01
3.90500000e+02	8.16174878e-01
3.91500000e+02	8.14163166e-01
3.92500000e+02	8.12127111e-01
3.93500000e+02	8.10066484e-01
3.94500000e+02	8.07981060e-01
3.95500000e+02	8.05870613e-01
3.96500000e+02	8.03734921e-01
3.97500000e+02	8.01573762e-01
3.98500000e+02	7.99386919e-01
3.99500000e+02	7.97174175e-01
4.00500000e+02	7.94935315e-01
4.01500000e+02	7.92670130e-01
4.02500000e+02	7.90378409e-01
4.03500000e+02	7.88059949e-01
4.04500000e+02	7.85714547e-01
4.05500000e+02	7.83342004e-01
4.06500000e+02	7.80942125e-01
4.07500000e+02	7.78514719e-01
4.08500000e+02	7.76059599e-01
4.09500000e+02	7.73576581e-01
4.10500000e+02	7.71065487e-01
4.11500000e+02	7.68526143e-01
4.12500000e+02	7.65958379e-01
4.13500000e+02	7.63362032e-01
4.14500000e+02	7.60736941e-01
4.15500000e+02	7.58082955e-01
4.16500000e+02	7.55399924e-01
4.17500000e+02	7.52687707e-01
4.18500000e+02	7.49946168e-01
4.19500000e+02	7.47175178e-01
4.20500000e+02	7.44374613e-01
4.21500000e+02	7.41544356e-01
4.22500000e+02	7.38684300e-01
4.23500000e+02	7.35794341e-01
4.24500000e+02	7.32874385e-01
4.25500000e+02	7.29924345e-01
4.26500000e+02	7.26944141e-01
4.27500000e+02	7.23933703e-01
4.28500000e+02	7.20892968e-01
4.29500000e+02	7.17821882e-01
4.30500000e+02	7.14720399e-01
4.31500000e+02	7.11588483e-01
4.32500000e+02	7.08426106e-01
4.33500000e+02	7.05233252e-01
4.34500000e+02	7.02009911e-01
4.35500000e+02	6.98756086e-01
4.36500000e+02	6.95471788e-01
4.37500000e+02	6.92157040e-01
4.38500000e+02	6.88811875e-01
4.39500000e+02	6.85436337e-01
4.40500000e+02	6.82030481e-01
4.41500000e+02	6.78594372e-01
4.42500000e+02	6.75128089e-01
4.43500000e+02	6.71631722e-01
4.44500000e+02	6.68105371e-01
4.45500000e+02	6.64549152e-01
4.46500000e+02	6.60963190e-01
4.47500000e+02	6.57347625e-01
4.48500000e+02	6.53702610e-01
4.49500000e+02	6.50028310e-01
4.50500000e+02	6.46324907e-01
4.51500000e+02	6.42592593e-01
4.52500000e+02	6.38831576e-01
4.53500000e+02	6.35042080e-01
4.54500000e+02	6.31224343e-01
4.55500000e+02	6.27378617e-01
4.56500000e+02	6.23505171e-01
4.57500000e+02	6.19604290e-01
4.58500000e+02	6.15676277e-01
4.59500000e+02	6.11721448e-01
4.60500000e+02	6.07740141e-01
4.61500000e+02	6.03732707e-01
4.62500000e+02	5.99699519e-01
4.63500000e+02	5.95640967e-01
4.64500000e+02	5.91557460e-01
4.65500000e+02	5.87449428e-01
4.66500000e+02	5.83317320e-01
4.67500000e+02	5.79161606e-01
4.68500000e+02	5.74982778e-01
4.69500000e+02	5.70781348e-01
4.70500000e+02	5.66557854e-01
4.71500000e+02	5.62312853e-01
4.72500000e+02	5.58046930e-01
4.73500000e+02	5.53760692e-01
4.74500000e+02	5.49454771e-01
4.75500000e+02	5.45129827e-01
4.76500000e+02	5.40786544e-01
4.77500000e+02	5.36425636e-01
4.78500000e+02	5.32047842e-01
4.79500000e+02	5.27653932e-01
4.80500000e+02	5.23244704e-01
4.81500000e+02	5.18820988e-01
4.82500000e+02	5.14383644e-01
4.83500000e+02	5.09933562e-01
4.84500000e+02	5.05471665e-01
4.85500000e+02	5.00998911e-01
4.86500000e+02	4.96516289e-01
4.87500000e+02	4.92024822e-01
4.88500000e+02	4.87525569e-01
4.89500000e+02	4.83019621e-01
4.90500000e+02	4.78508108e-01
4.91500000e+02	4.73992192e-01
4.92500000e+02	4.69473072e-01
4.93500000e+02	4.64951985e-01
4.94500000e+02	4.60430199e-01
4.95500000e+02	4.55909022e-01
4.96500000e+02	4.51389795e-01
4.97500000e+02	4.46873893e-01
4.98500000e+02	4.42362727e-01
4.99500000e+02	4.37857741e-01
5.00500000e+02	4.33360412e-01
5.01500000e+02	4.28872246e-01
5.02500000e+02	4.24394781e-01
5.03500000e+02	4.19929584e-01
5.04500000e+02	4.15478245e-01
5.05500000e+02	4.11042384e-01
5.06500000e+02	4.06623638e-01
5.07500000e+02	4.02223667e-01
5.08500000e+02	3.97844146e-01
5.09500000e+02	3.93486767e-01
5.10500000e+02	3.89153230e-01
5.11500000e+02	3.84845243e-01
5.12500000e+02	3.80564518e-01
5.13500000e+02	3.76312768e-01
5.14500000e+02	3.72091700e-01
5.15500000e+02	3.67903012e-01
5.16500000e+02	3.63748391e-01
5.17500000e+02	3.59629506e-01
5.18500000e+02	3.55548001e-01
5.19500000e+02	3.51505497e-01
5.20500000e+02	3.47503579e-01
5.21500000e+02	3.43543799e-01
5.22500000e+02	3.39627664e-01
5.23500000e+02	3.35756637e-01
5.24500000e+02	3.31932128e-01
5.25500000e+02	3.28155492e-01
5.26500000e+02	3.24428025e-01
5.27500000e+02	3.20750957e-01
5.28500000e+02	3.17125451e-01
5.29500000e+02	3.13552597e-01
5.30500000e+02	3.10033410e-01
5.31500000e+02	3.06568827e-01
5.32500000e+02	3.03159704e-01
5.33500000e+02	2.99806814e-01
5.34500000e+02	2.96510846e-01
5.35500000e+02	2.93272400e-01
5.36500000e+02	2.90091992e-01
5.37500000e+02	2.86970049e-01
5.38500000e+02	2.83906910e-01
5.39500000e+02	2.80902826e-01
5.40500000e+02	2.77957964e-01
5.41500000e+02	2.75072403e-01
5.42500000e+02	2.72246141e-01
5.43500000e+02	2.69479092e-01
5.44500000e+02	2.66771094e-01
5.45500000e+02	2.64121905e-01
5.46500000e+02	2.61531212e-01
5.47500000e+02	2.58998631e-01
5.48500000e+02	2.56523712e-01
5.49500000e+02	2.54105941e-01
5.50500000e+02	2.51744745e-01
5.51500000e+02	2.49439496e-01
5.52500000e+02	2.47189515e-01
5.53500000e+02	2.44994073e-01
5.54500000e+02	2.42852401e-01
5.55500000e+02	2.40763690e-01
5.56500000e+02	2.38727095e-01
5.57500000e+02	2.36741740e-01
5.58500000e+02	2.34806722e-01
5.59500000e+02	2.32921113e-01
5.60500000e+02	2.31083966e-01
5.61500000e+02	2.29294318e-01
5.62500000e+02	2.27551192e-01
5.63500000e+02	2.25853600e-01
5.64500000e+02	2.24200548e-01
5.65500000e+02	2.22591038e-01
5.66500000e+02	2.21024069e-01
5.67500000e+02	2.19498642e-01
5.68500000e+02	2.18013761e-01
5.69500000e+02	2.16568434e-01
5.70500000e+02	2.15161676e-01
5.71500000e+02	2.13792514e-01
5.72500000e+02	2.12459981e-01
5.73500000e+02	2.11163126e-01
5.74500000e+02	2.09901007e-01
5.75500000e+02	2.08672700e-01
5.76500000e+02	2.07477293e-01
5.77500000e+02	2.06313894e-01
5.78500000e+02	2.05181624e-01
5.79500000e+02	2.04079623e-01
5.80500000e+02	2.03007049e-01
5.81500000e+02	2.01963080e-01
5.82500000e+02	2.00946909e-01
5.83500000e+02	1.99957751e-01
5.84500000e+02	1.98994840e-01
5.85500000e+02	1.98057427e-01
5.86500000e+02	1.97144784e-01
5.87500000e+02	1.96256202e-01
5.88500000e+02	1.95390990e-01
5.89500000e+02	1.94548478e-01
5.90500000e+02	1.93728012e-01
5.91500000e+02	1.92928959e-01
5.92500000e+02	1.92150703e-01
5.93500000e+02	1.91392647e-01
5.94500000e+02	1.90654210e-01
5.95500000e+02	1.89934830e-01
5.96500000e+02	1.89233961e-01
5.97500000e+02	1.88551074e-01
5.98500000e+02	1.87885658e-01
5.99500000e+02	1.87237215e-01
6.00500000e+02	1.86605264e-01
6.01500000e+02	1.85989341e-01
6.02500000e+02	1.85388993e-01
6.03500000e+02	1.84803784e-01
6.04500000e+02	1.84233292e-01
6.05500000e+02	1.83677108e-01
6.06500000e+02	1.83134836e-01
6.07500000e+02	1.82606093e-01
6.08500000e+02	1.82090508e-01
6.09500000e+02	1.81587725e-01
6.10500000e+02	1.81097396e-01
6.11500000e+02	1.80619185e-01
6.12500000e+02	1.80152770e-01
6.13500000e+02	1.79697835e-01
6.14500000e+02	1.79254079e-01
6.15500000e+02	1.78821207e-01
6.16500000e+02	1.78398937e-01
6.17500000e+02	1.77986994e-01
6.18500000e+02	1.77585113e-01
6.19500000e+02	1.77193038e-01
6.20500000e+02	1.76810519e-01
6.21500000e+02	1.76437319e-01
6.22500000e+02	1.76073203e-01
6.23500000e+02	1.75717949e-01
6.24500000e+02	1.75371339e-01
6.25500000e+02	1.75033162e-01
6.26500000e+02	1.74703216e-01
6.27500000e+02	1.74381305e-01
6.28500000e+02	1.74067237e-01
6.29500000e+02	1.73760829e-01
6.30500000e+02	1.73461903e-01
6.31500000e+02	1.73170287e-01
6.32500000e+02	1.72885813e-01
6.33500000e+02	1.72608320e-01
6.34500000e+02	1.72337652e-01
6.35500000e+02	1.72073658e-01
6.36500000e+02	1.71816190e-01
6.37500000e+02	1.71565108e-01
6.38500000e+02	1.71320274e-01
6.39500000e+02	1.71081555e-01
6.40500000e+02	1.70848823e-01
6.41500000e+02	1.70621952e-01
6.42500000e+02	1.70400822e-01
6.43500000e+02	1.70185316e-01
6.44500000e+02	1.69975322e-01
6.45500000e+02	1.69770729e-01
6.46500000e+02	1.69571432e-01
6.47500000e+02	1.69377328e-01
6.48500000e+02	1.69188318e-01
6.49500000e+02	1.69004306e-01
6.50500000e+02	1.68825199e-01
6.51500000e+02	1.68650906e-01
6.52500000e+02	1.68481342e-01
6.53500000e+02	1.68316422e-01
6.54500000e+02	1.68156065e-01
6.55500000e+02	1.68000196e-01
6.56500000e+02	1.67848741e-01
6.57500000e+02	1.67701614e-01
6.58500000e+02	1.67558741e-01
6.59500000e+02	1.67420061e-01
6.60500000e+02	1.67285513e-01
