# Profil de ElecX au temps 1.200000000000016e-11 
# simu : /Volumes/MERCURE/JOBS/tanh_10mic_Zeq10_B0/GNU/ElecX@y-c.set
# col 0 : abscisse (um)
# col 1 : ElecX (V/m)
0.000000	0.000000
0.200000	15982.766782
0.400000	28733.476531
0.600000	47158.960450
0.800000	64164.955768
1.000000	77018.245018
1.200000	89275.225875
1.400000	104920.217570
1.600000	121946.035347
1.800000	138483.019082
2.000000	154152.939390
2.200000	169295.703862
2.400000	184297.174380
2.600000	199325.280096
2.800000	214489.851157
3.000000	229785.665368
3.200000	245152.605459
3.400000	260575.431407
3.600000	275973.980789
3.800000	291401.519175
4.000000	306856.176176
4.200000	322318.333017
4.400000	337752.541479
4.600000	353185.754523
4.800000	368666.422482
5.000000	384162.492646
5.200000	399616.806218
5.400000	415105.768342
5.600000	430635.479927
5.800000	446187.399149
6.000000	461671.536547
6.200000	477254.240672
6.400000	492852.384277
6.600000	508424.774201
6.800000	524018.551014
7.000000	539670.298779
7.200000	555340.223738
7.400000	570956.515089
7.600000	586666.845968
7.800000	602404.004764
8.000000	618099.071731
8.200000	633851.514685
8.400000	649649.350086
8.600000	665443.398706
8.800000	681234.499902
9.000000	697104.329330
9.200000	712996.660189
9.400000	728836.028922
9.600000	744783.164360
9.800000	760758.551776
10.000000	776688.151167
10.200000	792696.984461
10.400000	808754.743242
10.600000	824792.348111
10.800000	840863.531491
11.000000	857007.923160
11.200000	873158.422171
11.400000	889298.220963
11.600000	905535.238408
11.800000	921803.232146
12.000000	938018.313190
12.200000	954354.092607
12.400000	970729.451974
12.600000	987052.945661
12.800000	1003478.625799
13.000000	1019957.172209
13.200000	1036406.549845
13.400000	1052925.812529
13.600000	1069514.933183
13.800000	1086091.794924
14.000000	1102711.359289
14.200000	1119416.224630
14.400000	1136124.990243
14.600000	1152851.537316
14.800000	1169678.115436
15.000000	1186522.861168
15.200000	1203364.923595
15.400000	1220318.730863
15.600000	1237302.341760
15.800000	1254268.360070
16.000000	1271353.735859
16.200000	1288480.144696
16.400000	1305576.326757
16.600000	1322802.160909
16.800000	1340074.708840
17.000000	1357309.281904
17.200000	1374680.778573
17.400000	1392102.557007
17.600000	1409486.067034
17.800000	1427007.422008
18.000000	1444580.355637
18.200000	1462118.907513
18.400000	1479799.056164
18.600000	1497531.709706
18.800000	1515234.871719
19.000000	1533075.049044
19.200000	1550966.390232
19.400000	1568842.008884
19.600000	1586856.582983
19.800000	1604915.628750
20.000000	1622963.853335
20.200000	1641156.766496
20.400000	1659382.113451
20.600000	1677631.117116
20.800000	1695997.097933
21.000000	1714394.636557
21.200000	1732842.019689
21.400000	1751407.723517
21.600000	1769970.551471
21.800000	1788628.130156
22.000000	1807391.661189
22.200000	1826137.047591
22.400000	1845009.166871
22.600000	1863968.235662
22.800000	1882915.991243
23.000000	1902005.908653
23.200000	1921152.063111
23.400000	1940333.175894
23.600000	1959636.240535
23.800000	1978974.225421
24.000000	1998397.873606
24.200000	2017924.110537
24.400000	2037457.663291
24.600000	2057137.184012
24.800000	2076867.361145
25.000000	2096645.997409
25.200000	2116565.770652
25.400000	2136500.957727
25.600000	2156546.968769
25.800000	2176701.075929
26.000000	2196860.607384
26.200000	2217181.297547
26.400000	2237547.713850
26.600000	2257986.362096
26.800000	2278564.047157
27.000000	2299149.278802
27.200000	2319886.938530
27.400000	2340690.896089
27.600000	2361562.164994
27.800000	2382573.205056
28.000000	2403610.699802
28.200000	2424790.832213
28.400000	2446042.601482
28.600000	2467381.907705
28.800000	2488840.052763
29.000000	2510353.096903
29.200000	2532005.034466
29.400000	2553719.280012
29.600000	2575553.696886
29.800000	2597479.603028
30.000000	2619492.955225
30.200000	2641641.729659
30.400000	2663838.109924
30.600000	2686193.285459
30.800000	2708611.117249
31.000000	2731152.212222
31.200000	2753802.785034
31.400000	2776535.747304
31.600000	2799415.095435
31.800000	2822356.086562
32.000000	2845450.047453
32.200000	2868624.745521
32.400000	2891924.832689
32.600000	2915335.455137
32.800000	2938855.257876
33.000000	2962498.089962
33.200000	2986244.964241
33.400000	3010124.586753
33.600000	3034099.014413
33.800000	3058223.244883
34.000000	3082432.816100
34.200000	3106795.579789
34.400000	3131256.128191
34.600000	3155854.645155
34.800000	3180573.509220
35.000000	3205412.666726
35.200000	3230389.113079
35.400000	3255481.531799
35.600000	3280714.100545
35.800000	3306067.049636
36.000000	3331560.246658
36.200000	3357173.835993
36.400000	3382940.023348
36.600000	3408815.725511
36.800000	3434854.400860
37.000000	3461005.384665
37.200000	3487315.308682
37.400000	3513751.468389
37.600000	3540335.448305
37.800000	3567056.810227
38.000000	3593926.997926
38.200000	3620934.553181
38.400000	3648096.517406
38.600000	3675396.537465
38.800000	3702851.880408
39.000000	3730454.346068
39.200000	3758206.042014
39.400000	3786114.105509
39.600000	3814171.045629
39.800000	3842385.416463
40.000000	3870756.932650
40.200000	3899282.840501
40.400000	3927970.427378
40.600000	3956817.861252
40.800000	3985823.774592
41.000000	4014998.056191
41.200000	4044330.817855
41.400000	4073834.197635
41.600000	4103501.516352
41.800000	4133338.246688
42.000000	4163346.322073
42.200000	4193522.766268
42.400000	4223874.750896
42.600000	4254399.831936
42.800000	4285100.106465
43.000000	4315978.754000
43.200000	4347034.513963
43.400000	4378271.579961
43.600000	4409689.968740
43.800000	4441290.682195
44.000000	4473077.557280
44.200000	4505048.348570
44.400000	4537209.121780
44.600000	4569556.813388
44.800000	4602097.016953
45.000000	4634828.272086
45.200000	4667753.966114
45.400000	4700875.305384
45.600000	4734192.909210
45.800000	4767709.700177
46.000000	4801426.417689
46.200000	4835344.807402
46.400000	4869466.740409
46.600000	4903793.937417
46.800000	4938327.768333
47.000000	4973069.942054
47.200000	5008022.138014
47.400000	5043186.029767
47.600000	5078563.302381
47.800000	5114155.646417
48.000000	5149964.764507
48.200000	5185992.368722
48.400000	5222240.178684
48.600000	5258709.926009
48.800000	5295403.351548
49.000000	5332322.205107
49.200000	5369468.245513
49.400000	5406843.244715
49.600000	5444448.979605
49.800000	5482287.239759
50.000000	5520359.822842
50.200000	5558668.537116
50.400000	5597215.199911
50.600000	5636001.636630
50.800000	5675029.684862
51.000000	5714301.189594
51.200000	5753818.005107
51.400000	5793581.996385
51.600000	5833595.034777
51.800000	5873859.005153
52.000000	5914375.797904
52.200000	5955147.312571
52.400000	5996175.460799
52.600000	6037462.159386
52.800000	6079009.337191
53.000000	6120818.928267
53.200000	6162892.879732
53.400000	6205233.143038
53.600000	6247841.681854
53.800000	6290720.465143
54.000000	6333871.472109
54.200000	6377296.690545
54.400000	6420998.114321
54.600000	6464977.747068
54.800000	6509237.600092
55.000000	6553779.691634
55.200000	6598606.049917
55.400000	6643718.706543
55.600000	6689119.705692
55.800000	6734811.094662
56.000000	6780794.931103
56.200000	6827073.275553
56.400000	6873648.199100
56.600000	6920521.782129
56.800000	6967696.102370
57.000000	7015173.253706
57.200000	7062955.330852
57.400000	7111044.434518
57.600000	7159442.675361
57.800000	7208152.166090
58.000000	7257175.025494
58.200000	7306513.379043
58.400000	7356169.357168
58.600000	7406145.092875
58.800000	7456442.728292
59.000000	7507064.405636
59.200000	7558012.274858
59.400000	7609288.486594
59.600000	7660895.199691
59.800000	7712834.572412
60.000000	7765108.769406
60.200000	7817719.957081
60.400000	7870670.303983
60.600000	7923961.984574
60.800000	7977597.170697
61.000000	8031578.040391
61.200000	8085906.772368
61.400000	8140585.545938
61.600000	8195616.542175
61.800000	8251001.944109
62.000000	8306743.933985
62.200000	8362844.693907
62.400000	8419306.409188
62.600000	8476131.260225
62.800000	8533321.430514
63.000000	8590879.100726
63.200000	8648806.450685
63.400000	8707105.657934
63.600000	8765778.900119
63.800000	8824828.348419
64.000000	8884256.175386
64.200000	8944064.547317
64.400000	9004255.629626
64.600000	9064831.580899
64.800000	9125794.558259
65.000000	9187146.710936
65.200000	9248890.186077
65.400000	9311027.123096
65.600000	9373559.655224
65.800000	9436489.911016
66.000000	9499820.011238
66.200000	9563552.067647
66.400000	9627688.186164
66.600000	9692230.464190
66.800000	9757180.988342
67.000000	9822541.838949
67.200000	9888315.083816
67.400000	9954502.781906
67.600000	10021106.980339
67.800000	10088129.715929
68.000000	10155573.013434
68.200000	10223438.884482
68.400000	10291729.327786
68.600000	10360446.329123
68.800000	10429591.860115
69.000000	10499167.877020
69.200000	10569176.321212
69.400000	10639619.118982
69.600000	10710498.178948
69.800000	10781815.392660
70.000000	10853572.635393
70.200000	10925771.763044
70.400000	10998414.612153
70.600000	11071503.000885
70.800000	11145038.725988
71.000000	11219023.563975
71.200000	11293459.269876
71.400000	11368347.576252
71.600000	11443690.191550
71.800000	11519488.802812
72.000000	11595745.071132
72.200000	11672460.631210
72.400000	11749637.096193
72.600000	11827276.047591
72.800000	11905379.042904
73.000000	11983947.609217
73.200000	12062983.247352
73.400000	12142487.424460
73.600000	12222461.582175
73.800000	12302907.126204
74.000000	12383825.432246
74.200000	12465217.842569
74.400000	12547085.666039
74.600000	12629430.174754
74.800000	12712252.607164
75.000000	12795554.165460
75.200000	12879336.011232
75.400000	12963599.271005
75.600000	13048345.030120
75.800000	13133574.333452
76.000000	13219288.185518
76.200000	13305487.546285
76.400000	13392173.334890
76.600000	13479346.424783
76.800000	13567007.643431
77.000000	13655157.771504
77.200000	13743797.544121
77.400000	13832927.642983
77.600000	13922548.705034
77.800000	14012661.312151
78.000000	14103265.993971
78.200000	14194363.229008
78.400000	14285953.438228
78.600000	14378036.986595
78.800000	14470614.181911
79.000000	14563685.273420
79.200000	14657250.448331
79.400000	14751309.832848
79.600000	14845863.490305
79.800000	14940911.417346
80.000000	15036453.546091
80.200000	15132489.738387
80.400000	15229019.787970
80.600000	15326043.416045
80.800000	15423560.270256
81.000000	15521569.923887
81.200000	15620071.871779
81.400000	15719065.531707
81.600000	15818550.237671
81.800000	15918525.243210
82.000000	16018989.714928
82.200000	16119942.732017
82.400000	16221383.284678
82.600000	16323310.270101
82.800000	16425722.491680
83.000000	16528618.655546
83.200000	16631997.367814
83.400000	16735857.132610
83.600000	16840196.349563
83.800000	16945013.309559
84.000000	17050306.194173
84.200000	17156073.069871
84.400000	17262311.887360
84.600000	17369020.477312
84.800000	17476196.548460
85.000000	17583837.679957
85.200000	17691941.325195
85.400000	17800504.802287
85.600000	17909525.291524
85.800000	18018999.834651
86.000000	18128925.327667
86.200000	18239298.517928
86.400000	18350116.001109
86.600000	18461374.215671
86.800000	18573069.438295
87.000000	18685197.781885
87.200000	18797755.186089
87.400000	18910737.418396
87.600000	19024140.063197
87.800000	19137958.521597
88.000000	19252188.002209
88.200000	19366823.518205
88.400000	19481859.878437
88.600000	19597291.685407
88.800000	19713113.324333
89.000000	19829318.961230
89.200000	19945902.530061
89.400000	20062857.733452
89.600000	20180178.027730
89.800000	20297856.618155
90.000000	20415886.454954
90.200000	20534260.215667
90.400000	20652970.307319
90.600000	20772008.848594
90.800000	20891367.667577
91.000000	21011038.285266
91.200000	21131011.913817
91.400000	21251279.439771
91.600000	21371831.417258
91.800000	21492658.054529
92.000000	21613749.207839
92.200000	21735094.363652
92.400000	21856682.633488
92.600000	21978502.735889
92.800000	22100542.989420
93.000000	22222791.296197
93.200000	22345235.131736
93.400000	22467861.529969
93.600000	22590657.069842
93.800000	22713607.861305
94.000000	22836699.532879
94.200000	22959917.213200
94.400000	23083245.519671
94.600000	23206668.540461
94.800000	23330169.820155
95.000000	23453732.341555
95.200000	23577338.512615
95.400000	23700970.145180
95.600000	23824608.440447
95.800000	23948233.969913
96.000000	24071826.657230
96.200000	24195365.759795
96.400000	24318829.850181
96.600000	24442196.795127
96.800000	24565443.737935
97.000000	24688547.076420
97.200000	24811482.443609
97.400000	24934224.686281
97.600000	25056747.844900
97.800000	25179025.129516
98.000000	25301028.902188
98.200000	25422730.650855
98.400000	25544100.970761
98.600000	25665109.538841
98.800000	25785725.093241
99.000000	25905915.412424
99.200000	26025647.289127
99.400000	26144886.508259
99.600000	26263597.800518
99.800000	26381744.907399
100.000000	26499290.439861
100.200000	26616195.926596
100.400000	26732421.778765
100.600000	26847927.267673
100.800000	26962670.488252
101.000000	27076608.384429
101.200000	27189696.651119
101.400000	27301889.809837
101.600000	27413141.086050
101.800000	27523402.502828
102.000000	27632624.747991
102.200000	27740757.262553
102.400000	27847748.155624
102.600000	27953544.205405
102.800000	28058090.889348
103.000000	28161332.308572
103.200000	28263211.217845
103.400000	28363669.024221
103.600000	28462645.758795
103.800000	28560080.085238
104.000000	28655909.301732
104.200000	28750069.335974
104.400000	28842494.766003
104.600000	28933118.804843
104.800000	29021873.329517
105.000000	29108688.892890
105.200000	29193494.724793
105.400000	29276218.776080
105.600000	29356787.757092
105.800000	29435127.106503
106.000000	29511161.096290
106.200000	29584812.816343
106.400000	29656004.257496
106.600000	29724656.338454
106.800000	29790688.960906
107.000000	29854021.071236
107.200000	29914570.732720
107.400000	29972255.184858
107.600000	30026990.923345
107.800000	30078693.784028
108.000000	30127279.031234
108.200000	30172661.450752
108.400000	30214755.457061
108.600000	30253475.179981
108.800000	30288734.626278
109.000000	30320447.746588
109.200000	30348528.595417
109.400000	30372891.458687
109.600000	30393450.984054
109.800000	30410122.362304
110.000000	30422821.434126
110.200000	30431464.882902
110.400000	30435970.388205
110.600000	30436256.812143
110.800000	30432244.350417
111.000000	30423854.732304
111.200000	30411011.421336
111.400000	30393639.769472
111.600000	30371667.236967
111.800000	30345023.599414
112.000000	30313641.120008
112.200000	30277454.764326
112.400000	30236402.424994
112.600000	30190425.088952
112.800000	30139467.055822
113.000000	30083476.164924
113.200000	30022403.948645
113.400000	29956205.864733
113.600000	29884841.486190
113.800000	29808274.659242
114.000000	29726473.734683
114.200000	29639411.695128
114.400000	29547066.350196
114.600000	29449420.489969
114.800000	29346462.018170
115.000000	29238184.115569
115.200000	29124585.331123
115.400000	29005669.726439
115.600000	28881446.946449
115.800000	28751932.320638
116.000000	28617146.918448
116.200000	28477117.605682
116.400000	28331877.077696
116.600000	28181463.873388
116.800000	28025922.373710
117.000000	27865302.783579
117.200000	27699661.089379
117.400000	27529059.001112
117.600000	27353563.878185
117.800000	27173248.629440
118.000000	26988191.597727
118.200000	26798476.432550
118.400000	26604191.927849
118.600000	26405431.862241
118.800000	26202294.803488
119.000000	25994883.895486
119.200000	25783306.585243
119.400000	25567674.265408
119.600000	25348105.758004
119.800000	25124710.043791
120.000000	24897632.558075
120.200000	24666956.409135
120.400000	24432864.889707
120.600000	24195452.412153
120.800000	23954849.444125
121.000000	23711214.195709
121.200000	23464669.847379
121.400000	23215353.627131
121.600000	22963408.713138
121.800000	22708966.920863
122.000000	22452180.860785
122.200000	22193179.110000
122.400000	21932112.144020
122.600000	21669101.257956
122.800000	21404304.759729
123.000000	21137841.915122
123.200000	20869868.028240
123.400000	20600505.376140
123.600000	20329872.089229
123.800000	20058137.007552
124.000000	19785388.017701
124.200000	19511768.901796
124.400000	19237407.230993
124.600000	18962412.126232
124.800000	18686900.980808
125.000000	18410997.973910
125.200000	18134788.067053
125.400000	17858418.486920
125.600000	17581951.510668
125.800000	17305510.914236
126.000000	17029182.238610
126.200000	16753058.548807
126.400000	16477225.404646
126.600000	16201792.585708
126.800000	15926783.511223
127.000000	15652328.913641
127.200000	15378484.990806
127.400000	15105293.759171
127.600000	14832863.452289
127.800000	14561216.411576
128.000000	14290433.379980
128.200000	14020544.846350
128.400000	13751627.517151
128.600000	13483700.090987
128.800000	13216819.142854
129.000000	12951010.763727
129.200000	12686329.122247
129.400000	12422777.027477
129.600000	12160407.546708
129.800000	11899226.266979
130.000000	11639263.547495
130.200000	11380536.223359
130.400000	11123057.210610
130.600000	10866836.034478
130.800000	10611882.305513
131.000000	10358212.717254
131.200000	10105811.871438
131.400000	9854696.916405
131.600000	9604853.065434
131.800000	9356307.453916
132.000000	9108991.447855
132.200000	8862964.008111
132.400000	8618188.416585
132.600000	8374633.031961
132.800000	8132317.493841
133.000000	7891201.645031
133.200000	7651279.973267
133.400000	7412530.374062
133.600000	7174929.189519
133.800000	6938457.654876
134.000000	6703093.066451
134.200000	6468810.226068
134.400000	6235571.530306
134.600000	6003371.507754
134.800000	5772165.942552
135.000000	5541928.078078
135.200000	5312628.922249
135.400000	5084237.142723
135.600000	4856724.587206
135.800000	4630048.722610
136.000000	4404185.690946
136.200000	4179097.994198
136.400000	3954745.287229
136.600000	3731103.577576
136.800000	3508123.371054
137.000000	3285778.258574
137.200000	3064019.536990
137.400000	2842814.230744
137.600000	2622118.045938
137.800000	2401893.910195
138.000000	2182114.312370
138.200000	1962766.031865
138.400000	1743858.244411
138.600000	1525405.376739
138.800000	1307265.663428
139.000000	1088585.249852
139.200000	867862.919790
139.400000	655685.187289
139.600000	433823.451324
139.800000	217940.334769
140.000000	0.000000
