# Profil de FluxX au temps 6.099999999999995e-13 
# simu : /Volumes/MERCURE/JOBS/tanh_10mic_Zeq10_B0/GNU/FluxX@y-c.set
# col 0 : abscisse (um)
# col 1 : FluxX (W/cm2)
0.000000	0.000000
0.200000	1105880.279035
0.400000	2096264.993473
0.600000	3338226.400210
0.800000	4170993.465900
1.000000	5481475.222894
1.200000	6633323.075204
1.400000	7715823.147074
1.600000	8835380.818396
1.800000	9995606.434204
2.000000	11167885.949138
2.200000	12335379.656403
2.400000	13499372.378682
2.600000	14671378.319328
2.800000	15864853.098084
3.000000	17090505.147038
3.200000	18354892.906258
3.400000	19660902.204757
3.600000	21008992.022950
3.800000	22398438.908274
4.000000	23828320.646794
4.200000	25298137.357771
4.400000	26808115.126513
4.600000	28359277.143199
4.800000	29953380.635931
5.000000	31592769.883152
5.200000	33280216.211152
5.400000	35018776.209891
5.600000	36811675.241761
5.800000	38662229.239625
6.000000	40573793.505397
6.200000	42549738.552086
6.400000	44593461.585581
6.600000	46708384.322754
6.800000	48897977.849575
7.000000	51165785.996587
7.200000	53515440.022518
7.400000	55950680.098246
7.600000	58475374.245765
7.800000	61093525.734002
8.000000	63809284.549935
8.200000	66626959.664468
8.400000	69551022.712076
8.600000	72586116.406232
8.800000	75737057.184299
9.000000	79008844.765992
9.200000	82406673.661887
9.400000	85935935.818568
9.600000	89602233.979643
9.800000	93411388.842516
10.000000	97369448.401031
10.200000	101482702.806185
10.400000	105757695.303139
10.600000	110201229.445382
10.800000	114820376.294425
11.000000	119622495.372298
11.200000	124615240.486493
11.400000	129806571.434377
11.600000	135204768.730798
11.800000	140818441.828019
12.000000	146656549.673833
12.200000	152728411.304576
12.400000	159043718.862350
12.600000	165612558.598442
12.800000	172445425.216029
13.000000	179553235.088357
13.200000	186947352.670841
13.400000	194639599.733908
13.600000	202642280.084727
13.800000	210968197.024522
14.000000	219630673.873369
14.200000	228643576.433085
14.400000	238021333.728120
14.600000	247778959.091823
14.800000	257932077.945120
15.000000	268496947.349724
15.200000	279490490.069212
15.400000	290930313.417775
15.600000	302834738.981426
15.800000	315222836.022477
16.000000	328114447.020687
16.200000	341530219.601132
16.400000	355491643.842524
16.600000	370021082.384623
16.800000	385141805.639965
17.000000	400878030.178175
17.200000	417254956.409769
17.400000	434298811.993553
17.600000	452036888.119538
17.800000	470497583.810997
18.000000	489710456.589104
18.200000	509706261.655368
18.400000	530517007.455004
18.600000	552176000.005855
18.800000	574717904.128302
19.000000	598178791.450542
19.200000	622596202.925972
19.400000	648009201.839762
19.600000	674458446.483464
19.800000	701986245.863909
20.000000	730636633.225322
20.200000	760455429.910043
20.400000	791490325.413645
20.600000	823790947.199379
20.800000	857408947.871006
21.000000	892398078.586740
21.200000	928814277.940139
21.400000	966715764.754018
21.600000	1006163128.014390
21.800000	1047219420.602156
22.000000	1089950266.813099
22.200000	1134423959.720314
22.400000	1180711574.203459
22.600000	1228887077.757927
22.800000	1279027451.134669
23.000000	1331212808.147707
23.200000	1385526522.206832
23.400000	1442055364.419223
23.600000	1500889635.756642
23.800000	1562123313.147251
24.000000	1625854197.435773
24.200000	1692184072.090399
24.400000	1761218859.154488
24.600000	1833068791.557758
24.800000	1907848585.714631
25.000000	1985677628.465130
25.200000	2066680159.241311
25.400000	2150985472.394007
25.600000	2238728119.667040
25.800000	2330048122.293530
26.000000	2425091193.143857
26.200000	2524008968.709323
26.400000	2626959251.061370
26.600000	2734106249.758967
26.800000	2845620849.110408
27.000000	2961680871.740683
27.200000	3082471364.278234
27.400000	3208184886.984158
27.600000	3339021817.522136
27.800000	3475190664.882767
28.000000	3616908401.132675
28.200000	3764400799.991673
28.400000	3917902792.393146
28.600000	4077658836.344689
28.800000	4243923300.221865
29.000000	4416960860.123935
29.200000	4597046918.782609
29.400000	4784468034.254529
29.600000	4979522367.998421
29.800000	5182520150.181998
30.000000	5393784167.946239
30.200000	5613650266.298449
30.400000	5842467872.254465
30.600000	6080600538.673761
30.800000	6328426511.561215
31.000000	6586339313.880795
31.200000	6854748362.112599
31.400000	7134079595.372061
31.600000	7424776136.750876
31.800000	7727298983.007999
32.000000	8042127708.178651
32.200000	8369761210.077935
32.400000	8710718472.354610
32.600000	9065539370.378170
32.800000	9434785490.779730
33.000000	9819040998.514301
33.200000	10218913528.773649
33.400000	10635035115.076929
33.600000	11068063151.661959
33.800000	11518681394.838381
34.000000	11987601002.823830
34.200000	12475561607.406050
34.400000	12983332440.224049
34.600000	13511713486.168430
34.800000	14061536694.750080
35.000000	14633667225.061722
35.200000	15229004742.333250
35.400000	15848484762.649158
35.600000	16493080048.614130
35.800000	17163802053.489590
36.000000	17861702423.804989
36.200000	18587874546.898380
36.400000	19343455164.700348
36.600000	20129626048.570129
36.800000	20947615722.184708
37.000000	21798701254.171909
37.200000	22684210118.903198
37.400000	23605522115.992279
37.600000	24564071361.939297
37.800000	25561348349.733280
38.000000	26598902087.271687
38.200000	27678342299.069901
38.400000	28801341712.452587
38.600000	29969638423.975468
38.800000	31185038342.070732
39.000000	32449417708.211372
39.200000	33764725719.433472
39.400000	35132987221.701096
39.600000	36556305496.451729
39.800000	38036865148.452431
40.000000	39576935080.747025
40.200000	41178871560.455246
40.400000	42845121396.004051
40.600000	44578225203.609718
40.800000	46380820783.005363
41.000000	48255646594.040596
41.200000	50205545347.723450
41.400000	52233467697.773064
41.600000	54342476042.015892
41.800000	56535748451.323776
42.000000	58816582695.721519
42.200000	61188400394.813385
42.400000	63654751292.750259
42.600000	66219317636.843620
42.800000	68885918692.152695
43.000000	71658515371.507843
43.200000	74541214986.850052
43.400000	77538276131.620743
43.600000	80654113679.611221
43.800000	83893303918.295822
44.000000	87260589800.125259
44.200000	90760886317.515030
44.400000	94399286017.226486
44.600000	98181064627.160721
44.800000	102111686804.339493
45.000000	106196812018.986984
45.200000	110442300550.903183
45.400000	114854219607.184387
45.600000	119438849556.397583
45.800000	124202690276.719894
46.000000	129152467622.417984
46.200000	134295139985.976807
46.400000	139637904971.318298
46.600000	145188206169.725800
46.800000	150953740015.039185
47.000000	156942462743.265594
47.200000	163162597420.130768
47.400000	169622641051.919891
47.600000	176331371752.447876
47.800000	183297855978.523499
48.000000	190531455805.462799
48.200000	198041836244.613586
48.400000	205838972582.796783
48.600000	213933157743.653290
48.800000	222335009646.984192
49.000000	231055478558.996277
49.200000	240105854414.833923
49.400000	249497774098.218292
49.600000	259243228672.530792
49.800000	269354570522.048920
50.000000	279844520414.276978
50.200000	290726174432.536438
50.400000	302013010793.123108
50.600000	313718896486.662048
50.800000	325858093753.608704
51.000000	338445266353.697449
51.200000	351495485597.546570
51.400000	365024236135.796265
51.600000	379047421457.419495
51.800000	393581369078.266174
52.000000	408642835386.388184
52.200000	424249010117.407043
52.400000	440417520421.216614
52.600000	457166434493.838257
52.800000	474514264733.515442
53.000000	492479970386.357605
53.200000	511082959658.196350
53.400000	530343091227.619812
53.600000	550280675152.868042
53.800000	570916473107.695557
54.000000	592271697927.334595
54.200000	614368012409.685547
54.400000	637227527327.950317
54.600000	660872798631.874634
54.800000	685326823774.487671
55.000000	710613037133.907959
55.200000	736755304480.719360
55.400000	763777916455.097290
55.600000	791705580999.113403
55.800000	820563414718.664795
56.000000	850376933117.562378
56.200000	881172039663.944824
56.400000	912975013663.627197
56.600000	945812496867.166992
56.800000	979711478814.812988
57.000000	1014699280836.744995
57.200000	1050803538710.245972
57.400000	1088052183906.609863
57.600000	1126473423421.810059
57.800000	1166095718136.945068
58.000000	1206947759688.656982
58.200000	1249058445839.101807
58.400000	1292456854278.116943
58.600000	1337172214888.658936
58.800000	1383233880418.031982
59.000000	1430671295562.544922
59.200000	1479513964438.314941
59.400000	1529791416443.261963
59.600000	1581533170506.402832
59.800000	1634768697714.428955
60.000000	1689527382336.555908
60.200000	1745838481234.350098
60.400000	1803731081704.572754
60.600000	1863234057745.301758
60.800000	1924376024782.201904
61.000000	1987185292888.433838
61.200000	2051689818522.948730
61.400000	2117917154845.795898
61.600000	2185894400642.791016
61.800000	2255648147918.031738
62.000000	2327204428212.513672
62.200000	2400588657717.174805
62.400000	2475825581251.171875
62.600000	2552939215166.958008
62.800000	2631952789305.083008
63.000000	2712888688031.714844
63.200000	2795768390509.520020
63.400000	2880612410260.679688
63.600000	2967440234154.976074
63.800000	3056270260926.340820
64.000000	3147119739325.120605
64.200000	3240004706056.625977
64.400000	3334939923601.527832
64.600000	3431938818074.532715
64.800000	3531013417248.532715
65.000000	3632174288879.249023
65.200000	3735430479500.310547
65.400000	3840789453795.512207
65.600000	3948257034746.482422
65.800000	4057837344675.340820
66.000000	4169532747341.203613
66.200000	4283343791270.599609
66.400000	4399269154453.907227
66.600000	4517305590584.857422
66.800000	4637447876979.763672
67.000000	4759688764363.160156
67.200000	4884018928659.788086
67.400000	5010426924935.675781
67.600000	5138899143665.532227
67.800000	5269419769458.278320
68.000000	5401970742398.420898
68.200000	5536531722123.810547
68.400000	5673080054794.066406
68.600000	5811590743081.047852
68.800000	5952036419290.096680
69.000000	6094387321730.125977
69.200000	6238611274466.180664
69.400000	6384673670522.042969
69.600000	6532537458648.228516
69.800000	6682163133733.918945
70.000000	6833508730931.117188
70.200000	6986529823561.850586
70.400000	7141179524856.319336
70.600000	7297408493568.495117
70.800000	7455164943504.512695
71.000000	7614394656962.752930
71.200000	7775041002124.167969
71.400000	7937044954362.440430
71.600000	8100345121476.265625
71.800000	8264877772797.798828
72.000000	8430576872148.835938
72.200000	8597374114589.726562
72.400000	8765198966890.248047
72.600000	8933978711647.292969
72.800000	9103638494955.101562
73.000000	9274101377536.658203
73.200000	9445288389215.314453
73.400000	9617118586599.830078
73.600000	9789509113850.710938
73.800000	9962375266388.552734
74.000000	10135630557379.291016
74.200000	10309186786834.398438
74.400000	10482954113158.580078
74.600000	10656841126953.119141
74.800000	10830754926894.468750
75.000000	11004601197493.509766
75.200000	11178284288526.439453
75.400000	11351707295937.089844
75.600000	11524772143996.679688
75.800000	11697379668514.470703
76.000000	11869429700870.388672
76.200000	12040821152665.509766
76.400000	12211452100752.828125
76.600000	12381219872457.390625
76.800000	12550021130739.240234
77.000000	12717751959104.468750
77.200000	12884307946049.759766
77.400000	13049584268817.070312
77.600000	13213475776285.230469
77.800000	13375877070778.099609
78.000000	13536682588607.208984
78.200000	13695786679184.738281
78.400000	13853083682519.320312
78.600000	14008468004937.529297
78.800000	14161834192900.759766
79.000000	14313077004763.238281
79.200000	14462091480367.880859
79.400000	14608773008366.390625
79.600000	14753017391188.890625
79.800000	14894720907573.320312
80.000000	15033780372627.458984
80.200000	15170093195385.250000
80.400000	15303557433836.429688
80.600000	15434071847468.039062
80.800000	15561535947337.939453
81.000000	15685850043744.710938
81.200000	15806915291597.658203
81.400000	15924633733574.371094
81.600000	16038908341242.828125
81.800000	16149643054291.068359
82.000000	16256742818072.890625
82.200000	16360113619716.619141
82.400000	16459662523033.019531
82.600000	16555297702523.029297
82.800000	16646928476800.318359
83.000000	16734465341787.681641
83.200000	16817820004060.908203
83.400000	16896905414730.078125
83.600000	16971635804315.238281
83.800000	17041926719067.978516
84.000000	17107695059198.810547
84.200000	17168859119533.410156
84.400000	17225338633115.978516
84.600000	17277054818266.197266
84.800000	17323930429671.970703
85.000000	17365889814028.281250
85.200000	17402858970800.701172
85.400000	17434765618649.257812
85.600000	17461539268052.798828
85.800000	17483111300651.439453
86.000000	17499415055829.429688
86.200000	17510385924982.439453
86.400000	17515961453945.578125
86.600000	17516081453956.789062
86.800000	17510688121506.279297
87.000000	17499726167393.228516
87.200000	17483142955200.189453
87.400000	17460888649350.050781
87.600000	17432916372839.548828
87.800000	17399182374662.320312
88.000000	17359646206811.628906
88.200000	17314270910700.210938
88.400000	17263023212712.630859
88.600000	17205873728494.318359
88.800000	17142797175490.519531
89.000000	17073772593117.029297
89.200000	16998783569844.810547
89.400000	16917818476339.468750
89.600000	16830870703711.308594
89.800000	16737938905797.750000
90.000000	16639027244258.498047
90.200000	16534145635199.849609
90.400000	16423309995897.777344
90.600000	16306542490093.820312
90.800000	16183871770237.087891
91.000000	16055333214953.519531
91.200000	15920969159955.689453
91.400000	15780829120500.130859
91.600000	15634970003476.230469
91.800000	15483456307128.699219
92.000000	15326360306425.371094
92.200000	15163762222004.039062
92.400000	14995750370721.158203
92.600000	14822421295760.679688
92.800000	14643879874369.708984
93.000000	14460239401321.089844
93.200000	14271621646323.189453
93.400000	14078156883682.109375
93.600000	13879983892691.449219
93.800000	13677249927402.958984
94.000000	13470110654591.068359
94.200000	13258730058967.939453
94.400000	13043280314980.259766
94.600000	12823941624720.039062
94.800000	12600902021815.968750
95.000000	12374357141465.869141
95.200000	12144509957042.939453
95.400000	11911570484058.300781
95.600000	11675755452536.710938
95.800000	11437287949180.109375
96.000000	11196397030952.519531
96.200000	10953317311987.548828
96.400000	10708288525922.201172
96.600000	10461555065936.019531
96.800000	10213365504935.580078
97.000000	9963972098353.386719
97.200000	9713630272092.240234
97.400000	9462598098071.080078
97.600000	9211135759770.263672
97.800000	8959505009960.814453
98.000000	8707968622640.381836
98.200000	8456789840890.148438
98.400000	8206231822100.220703
98.600000	7956557081615.136719
98.800000	7708026935564.187500
99.000000	7460900943211.799805
99.200000	7215436348848.280273
99.400000	6971887522878.898438
99.600000	6730505401508.735352
99.800000	6491536924178.107422
100.000000	6255224467710.018555
100.200000	6021805276114.909180
100.400000	5791510884985.084961
100.600000	5564566539554.297852
100.800000	5341190605743.620117
101.000000	5121593973897.914062
101.200000	4905979455404.752930
101.400000	4694541172972.468750
101.600000	4487463946068.940430
101.800000	4284922673845.728516
102.000000	4087081718662.978516
102.200000	3894094294374.999512
102.400000	3706101864352.535156
102.600000	3523233555198.073730
102.800000	3345605592260.657227
103.000000	3173320760582.315918
103.200000	3006467946388.024902
103.400000	2845121627352.403809
103.600000	2689341520606.643066
103.800000	2539172257632.740723
104.000000	2394643130317.295898
104.200000	2255767926265.199707
104.400000	2122544856482.056152
104.600000	1994956582728.346680
104.800000	1872970350455.302979
105.000000	1756538231827.341797
105.200000	1645597481584.869873
105.400000	1540071006527.207031
105.600000	1439867947575.946045
105.800000	1344884370659.285889
106.000000	1255004061432.805908
106.200000	1170099415571.815918
106.400000	1090032415207.490967
106.600000	1014655678085.231934
106.800000	943813581111.411499
107.000000	877343413515.651123
107.200000	815076557381.413452
107.400000	756839716892.909058
107.600000	702456120963.054321
107.800000	651746718446.500610
108.000000	604531342975.733276
108.200000	560629833560.180176
108.400000	519863098020.868408
108.600000	482054107782.175293
108.800000	447028815599.683228
109.000000	414616985679.062744
109.200000	384652934065.059570
109.400000	356976173192.191956
109.600000	331431959503.722656
109.800000	307871744772.201660
110.000000	286153530909.965881
110.200000	266142134631.086487
110.400000	247709364326.711914
110.600000	230734115761.591705
110.800000	215102392422.539886
111.000000	200707259216.439392
111.200000	187448736500.052765
111.400000	175233640862.552002
111.600000	163975383025.109894
111.800000	153593729201.740784
112.000000	144014532619.520294
112.200000	135169443490.862900
112.400000	126995603613.627380
112.600000	119435330117.988602
112.800000	112435795265.455994
113.000000	105948706348.018494
113.200000	99929988392.233337
113.400000	94339475051.072937
113.600000	89140608829.494537
113.800000	84300152940.836182
114.000000	79787917538.243240
114.200000	75576499732.519547
114.400000	71641039792.016586
114.600000	67958992886.815819
114.800000	64509916698.124916
115.000000	61275275229.387596
115.200000	58238257402.897789
115.400000	55383611299.962097
115.600000	52697491861.429115
115.800000	50167322779.726250
116.000000	47781670494.776276
116.200000	45530130480.275780
116.400000	43403224169.094696
116.600000	41392306308.381950
116.800000	39489481374.516373
117.000000	37687528638.141129
117.200000	35979834947.174294
117.400000	34360334485.504829
117.600000	32823454896.976608
117.800000	31364069097.668262
118.000000	29977452221.992672
118.200000	28659243158.915901
118.400000	27405410176.975750
118.600000	26212220240.805229
118.800000	25076211563.945038
119.000000	23994169067.458221
119.200000	22963102439.771877
119.400000	21980226468.272820
119.600000	21042943408.324497
119.800000	20148827166.434608
120.000000	19295609075.675591
120.200000	18481165104.168709
120.400000	17703504319.694401
120.600000	16960758469.127411
120.800000	16251172571.611900
121.000000	15573096382.679909
121.200000	14924976660.580729
121.400000	14305350130.222010
121.600000	13712837076.592350
121.800000	13146135504.453600
122.000000	12604015801.458710
122.200000	12085315852.922470
122.400000	11588936560.818169
122.600000	11113837731.098141
122.800000	10659034286.759590
123.000000	10223592784.241459
123.200000	9806628201.527134
123.400000	9407300958.641523
123.600000	9024814169.215548
123.800000	8658411093.175623
124.000000	8307372775.897896
124.200000	7971015850.124410
124.400000	7648690483.234893
124.600000	7339778487.946074
124.800000	7043691542.202665
125.000000	6759869536.874092
125.200000	6487779024.942627
125.400000	6226911778.852671
125.600000	5976783434.430350
125.800000	5736932222.883646
126.000000	5506917782.496105
126.200000	5286320039.553695
126.400000	5074738159.223287
126.600000	4871789559.395479
126.800000	4677108973.393023
127.000000	4490347581.605247
127.200000	4311172183.464293
127.400000	4139264405.781065
127.600000	3974319971.634238
127.800000	3816047994.700989
128.000000	3664170306.107038
128.200000	3518420827.134434
128.400000	3378544950.318580
128.600000	3244298963.545433
128.800000	3115449484.710489
129.000000	2991772927.421970
129.200000	2873054964.601811
129.400000	2759090032.997083
129.600000	2649680819.925056
129.800000	2544637800.115696
130.000000	2443778746.827882
130.200000	2346928289.570115
130.400000	2253917459.584083
130.600000	2164583274.168436
130.800000	2078768346.071493
131.000000	1996320515.995592
131.200000	1917092539.132368
131.400000	1840941799.044052
131.600000	1767730132.388665
131.800000	1697323657.204414
132.000000	1629592710.186361
132.200000	1564411864.720748
132.400000	1501659983.938315
132.600000	1441220355.650549
132.800000	1382980830.738246
133.000000	1326833991.300794
133.200000	1272677255.436039
133.400000	1220412920.304083
133.600000	1169948101.887973
