# Profil de ElecX au temps 1.500000000000013e-11 
# simu : /Volumes/MERCURE/JOBS/Zeq1_tanh_50mic_1p5e20_B0_20ps/GNU/ElecX@y-c.set
# col 0 : abscisse (um)
# col 1 : ElecX (V/m)
0.00000000e+00	0.00000000e+00
1.00000000e+00	5.02868745e+03
2.00000000e+00	6.15175143e+03
3.00000000e+00	9.36284323e+03
4.00000000e+00	1.34328787e+04
5.00000000e+00	1.66707060e+04
6.00000000e+00	1.99853192e+04
7.00000000e+00	2.33138511e+04
8.00000000e+00	2.66441860e+04
9.00000000e+00	2.99748914e+04
1.00000000e+01	3.33057716e+04
1.10000000e+01	3.66370663e+04
1.20000000e+01	3.99682164e+04
1.30000000e+01	4.32994083e+04
1.40000000e+01	4.66315534e+04
1.50000000e+01	4.99629920e+04
1.60000000e+01	5.32955802e+04
1.70000000e+01	5.66276965e+04
1.80000000e+01	5.99607895e+04
1.90000000e+01	6.32935079e+04
2.00000000e+01	6.66274089e+04
2.10000000e+01	6.99607261e+04
2.20000000e+01	7.32952189e+04
2.30000000e+01	7.66296219e+04
2.40000000e+01	7.99647083e+04
2.50000000e+01	8.33003474e+04
2.60000000e+01	8.66357890e+04
2.70000000e+01	8.99727430e+04
2.80000000e+01	9.33094376e+04
2.90000000e+01	9.66467337e+04
3.00000000e+01	9.99852022e+04
3.10000000e+01	1.03323608e+05
3.20000000e+01	1.06662692e+05
3.30000000e+01	1.10002937e+05
3.40000000e+01	1.13343410e+05
3.50000000e+01	1.16684487e+05
3.60000000e+01	1.20026727e+05
3.70000000e+01	1.23369456e+05
3.80000000e+01	1.26712819e+05
3.90000000e+01	1.30057452e+05
4.00000000e+01	1.33402675e+05
4.10000000e+01	1.36748468e+05
4.20000000e+01	1.40095693e+05
4.30000000e+01	1.43443931e+05
4.40000000e+01	1.46792558e+05
4.50000000e+01	1.50142540e+05
4.60000000e+01	1.53493801e+05
4.70000000e+01	1.56845925e+05
4.80000000e+01	1.60198983e+05
4.90000000e+01	1.63553613e+05
5.00000000e+01	1.66909530e+05
5.10000000e+01	1.70266020e+05
5.20000000e+01	1.73624391e+05
5.30000000e+01	1.76984064e+05
5.40000000e+01	1.80345170e+05
5.50000000e+01	1.83707192e+05
5.60000000e+01	1.87071321e+05
5.70000000e+01	1.90436754e+05
5.80000000e+01	1.93803687e+05
5.90000000e+01	1.97172138e+05
6.00000000e+01	2.00542551e+05
6.10000000e+01	2.03914772e+05
6.20000000e+01	2.07288300e+05
6.30000000e+01	2.10664001e+05
6.40000000e+01	2.14041506e+05
6.50000000e+01	2.17421282e+05
6.60000000e+01	2.20802374e+05
6.70000000e+01	2.24186065e+05
6.80000000e+01	2.27571800e+05
6.90000000e+01	2.30959973e+05
7.00000000e+01	2.34349638e+05
7.10000000e+01	2.37742310e+05
7.20000000e+01	2.41137160e+05
7.30000000e+01	2.44534692e+05
7.40000000e+01	2.47933904e+05
7.50000000e+01	2.51336675e+05
7.60000000e+01	2.54741819e+05
7.70000000e+01	2.58149900e+05
7.80000000e+01	2.61560111e+05
7.90000000e+01	2.64973949e+05
8.00000000e+01	2.68390413e+05
8.10000000e+01	2.71810311e+05
8.20000000e+01	2.75232585e+05
8.30000000e+01	2.78658753e+05
8.40000000e+01	2.82088016e+05
8.50000000e+01	2.85520938e+05
8.60000000e+01	2.88956652e+05
8.70000000e+01	2.92396520e+05
8.80000000e+01	2.95839958e+05
8.90000000e+01	2.99287200e+05
9.00000000e+01	3.02738037e+05
9.10000000e+01	3.06192847e+05
9.20000000e+01	3.09652050e+05
9.30000000e+01	3.13115162e+05
9.40000000e+01	3.16582622e+05
9.50000000e+01	3.20054164e+05
9.60000000e+01	3.23530526e+05
9.70000000e+01	3.27011346e+05
9.80000000e+01	3.30497061e+05
9.90000000e+01	3.33987037e+05
1.00000000e+02	3.37482368e+05
1.01000000e+02	3.40982677e+05
1.02000000e+02	3.44488155e+05
1.03000000e+02	3.47999022e+05
1.04000000e+02	3.51514827e+05
1.05000000e+02	3.55036718e+05
1.06000000e+02	3.58563963e+05
1.07000000e+02	3.62097175e+05
1.08000000e+02	3.65636451e+05
1.09000000e+02	3.69181235e+05
1.10000000e+02	3.72732728e+05
1.11000000e+02	3.76290586e+05
1.12000000e+02	3.79854649e+05
1.13000000e+02	3.83425807e+05
1.14000000e+02	3.87003218e+05
1.15000000e+02	3.90587922e+05
1.16000000e+02	3.94179677e+05
1.17000000e+02	3.97778754e+05
1.18000000e+02	4.01385162e+05
1.19000000e+02	4.04999405e+05
1.20000000e+02	4.08620958e+05
1.21000000e+02	4.12250828e+05
1.22000000e+02	4.15888638e+05
1.23000000e+02	4.19534142e+05
1.24000000e+02	4.23189454e+05
1.25000000e+02	4.26852824e+05
1.26000000e+02	4.30525162e+05
1.27000000e+02	4.34206375e+05
1.28000000e+02	4.37896739e+05
1.29000000e+02	4.41596783e+05
1.30000000e+02	4.45306304e+05
1.31000000e+02	4.49025749e+05
1.32000000e+02	4.52755120e+05
1.33000000e+02	4.56494976e+05
1.34000000e+02	4.60245212e+05
1.35000000e+02	4.64006105e+05
1.36000000e+02	4.67778017e+05
1.37000000e+02	4.71561045e+05
1.38000000e+02	4.75355527e+05
1.39000000e+02	4.79161584e+05
1.40000000e+02	4.82979636e+05
1.41000000e+02	4.86809682e+05
1.42000000e+02	4.90652213e+05
1.43000000e+02	4.94507398e+05
1.44000000e+02	4.98375480e+05
1.45000000e+02	5.02256587e+05
1.46000000e+02	5.06151283e+05
1.47000000e+02	5.10059759e+05
1.48000000e+02	5.13981933e+05
1.49000000e+02	5.17918681e+05
1.50000000e+02	5.21869805e+05
1.51000000e+02	5.25835988e+05
1.52000000e+02	5.29817062e+05
1.53000000e+02	5.33813848e+05
1.54000000e+02	5.37826280e+05
1.55000000e+02	5.41855212e+05
1.56000000e+02	5.45900229e+05
1.57000000e+02	5.49962088e+05
1.58000000e+02	5.54041092e+05
1.59000000e+02	5.58137329e+05
1.60000000e+02	5.62251569e+05
1.61000000e+02	5.66383806e+05
1.62000000e+02	5.70534516e+05
1.63000000e+02	5.74704156e+05
1.64000000e+02	5.78892987e+05
1.65000000e+02	5.83101332e+05
1.66000000e+02	5.87329767e+05
1.67000000e+02	5.91578481e+05
1.68000000e+02	5.95848058e+05
1.69000000e+02	6.00138645e+05
1.70000000e+02	6.04450883e+05
1.71000000e+02	6.08785159e+05
1.72000000e+02	6.13141718e+05
1.73000000e+02	6.17521172e+05
1.74000000e+02	6.21923893e+05
1.75000000e+02	6.26350262e+05
1.76000000e+02	6.30800957e+05
1.77000000e+02	6.35276124e+05
1.78000000e+02	6.39776524e+05
1.79000000e+02	6.44302342e+05
1.80000000e+02	6.48854277e+05
1.81000000e+02	6.53432662e+05
1.82000000e+02	6.58038044e+05
1.83000000e+02	6.62671058e+05
1.84000000e+02	6.67331882e+05
1.85000000e+02	6.72021345e+05
1.86000000e+02	6.76739886e+05
1.87000000e+02	6.81487955e+05
1.88000000e+02	6.86266159e+05
1.89000000e+02	6.91075031e+05
1.90000000e+02	6.95915109e+05
1.91000000e+02	7.00786929e+05
1.92000000e+02	7.05691140e+05
1.93000000e+02	7.10628311e+05
1.94000000e+02	7.15598940e+05
1.95000000e+02	7.20603626e+05
1.96000000e+02	7.25643089e+05
1.97000000e+02	7.30717830e+05
1.98000000e+02	7.35828600e+05
1.99000000e+02	7.40975784e+05
2.00000000e+02	7.46160252e+05
2.01000000e+02	7.51382464e+05
2.02000000e+02	7.56643280e+05
2.03000000e+02	7.61943137e+05
2.04000000e+02	7.67282844e+05
2.05000000e+02	7.72663047e+05
2.06000000e+02	7.78084428e+05
2.07000000e+02	7.83547659e+05
2.08000000e+02	7.89053439e+05
2.09000000e+02	7.94602528e+05
2.10000000e+02	8.00195638e+05
2.11000000e+02	8.05833402e+05
2.12000000e+02	8.11516668e+05
2.13000000e+02	8.17246158e+05
2.14000000e+02	8.23022604e+05
2.15000000e+02	8.28846733e+05
2.16000000e+02	8.34719396e+05
2.17000000e+02	8.40641357e+05
2.18000000e+02	8.46613326e+05
2.19000000e+02	8.52636200e+05
2.20000000e+02	8.58710754e+05
2.21000000e+02	8.64837781e+05
2.22000000e+02	8.71017967e+05
2.23000000e+02	8.77252389e+05
2.24000000e+02	8.83541851e+05
2.25000000e+02	8.89887173e+05
2.26000000e+02	8.96289249e+05
2.27000000e+02	9.02748897e+05
2.28000000e+02	9.09267010e+05
2.29000000e+02	9.15844513e+05
2.30000000e+02	9.22482254e+05
2.31000000e+02	9.29181170e+05
2.32000000e+02	9.35942207e+05
2.33000000e+02	9.42766185e+05
2.34000000e+02	9.49654026e+05
2.35000000e+02	9.56606892e+05
2.36000000e+02	9.63625631e+05
2.37000000e+02	9.70711264e+05
2.38000000e+02	9.77864722e+05
2.39000000e+02	9.85086990e+05
2.40000000e+02	9.92379100e+05
2.41000000e+02	9.99742002e+05
2.42000000e+02	1.00717678e+06
2.43000000e+02	1.01468438e+06
2.44000000e+02	1.02226578e+06
2.45000000e+02	1.02992225e+06
2.46000000e+02	1.03765475e+06
2.47000000e+02	1.04546441e+06
2.48000000e+02	1.05335225e+06
2.49000000e+02	1.06131940e+06
2.50000000e+02	1.06936693e+06
2.51000000e+02	1.07749599e+06
2.52000000e+02	1.08570758e+06
2.53000000e+02	1.09400296e+06
2.54000000e+02	1.10238330e+06
2.55000000e+02	1.11084977e+06
2.56000000e+02	1.11940344e+06
2.57000000e+02	1.12804562e+06
2.58000000e+02	1.13677748e+06
2.59000000e+02	1.14560023e+06
2.60000000e+02	1.15451508e+06
2.61000000e+02	1.16352327e+06
2.62000000e+02	1.17262605e+06
2.63000000e+02	1.18182466e+06
2.64000000e+02	1.19112040e+06
2.65000000e+02	1.20051453e+06
2.66000000e+02	1.21000836e+06
2.67000000e+02	1.21960319e+06
2.68000000e+02	1.22930036e+06
2.69000000e+02	1.23910120e+06
2.70000000e+02	1.24900705e+06
2.71000000e+02	1.25901929e+06
2.72000000e+02	1.26913929e+06
2.73000000e+02	1.27936843e+06
2.74000000e+02	1.28970813e+06
2.75000000e+02	1.30015980e+06
2.76000000e+02	1.31072488e+06
2.77000000e+02	1.32140482e+06
2.78000000e+02	1.33220110e+06
2.79000000e+02	1.34311519e+06
2.80000000e+02	1.35414859e+06
2.81000000e+02	1.36530281e+06
2.82000000e+02	1.37657937e+06
2.83000000e+02	1.38797982e+06
2.84000000e+02	1.39950572e+06
2.85000000e+02	1.41115863e+06
2.86000000e+02	1.42294014e+06
2.87000000e+02	1.43485184e+06
2.88000000e+02	1.44689536e+06
2.89000000e+02	1.45907233e+06
2.90000000e+02	1.47138438e+06
2.91000000e+02	1.48383319e+06
2.92000000e+02	1.49642042e+06
2.93000000e+02	1.50914779e+06
2.94000000e+02	1.52201698e+06
2.95000000e+02	1.53502974e+06
2.96000000e+02	1.54818780e+06
2.97000000e+02	1.56149292e+06
2.98000000e+02	1.57494689e+06
2.99000000e+02	1.58855148e+06
3.00000000e+02	1.60230851e+06
3.01000000e+02	1.61621980e+06
3.02000000e+02	1.63028720e+06
3.03000000e+02	1.64451256e+06
3.04000000e+02	1.65889776e+06
3.05000000e+02	1.67344469e+06
3.06000000e+02	1.68815524e+06
3.07000000e+02	1.70303135e+06
3.08000000e+02	1.71807495e+06
3.09000000e+02	1.73328800e+06
3.10000000e+02	1.74867247e+06
3.11000000e+02	1.76423035e+06
3.12000000e+02	1.77996362e+06
3.13000000e+02	1.79587432e+06
3.14000000e+02	1.81196448e+06
3.15000000e+02	1.82823614e+06
3.16000000e+02	1.84469136e+06
3.17000000e+02	1.86133222e+06
3.18000000e+02	1.87816082e+06
3.19000000e+02	1.89517925e+06
3.20000000e+02	1.91238964e+06
3.21000000e+02	1.92979412e+06
3.22000000e+02	1.94739483e+06
3.23000000e+02	1.96519394e+06
3.24000000e+02	1.98319361e+06
3.25000000e+02	2.00139603e+06
3.26000000e+02	2.01980340e+06
3.27000000e+02	2.03841791e+06
3.28000000e+02	2.05724180e+06
3.29000000e+02	2.07627727e+06
3.30000000e+02	2.09552659e+06
3.31000000e+02	2.11499198e+06
3.32000000e+02	2.13467570e+06
3.33000000e+02	2.15458003e+06
3.34000000e+02	2.17470722e+06
3.35000000e+02	2.19505956e+06
3.36000000e+02	2.21563934e+06
3.37000000e+02	2.23644883e+06
3.38000000e+02	2.25749035e+06
3.39000000e+02	2.27876618e+06
3.40000000e+02	2.30027862e+06
3.41000000e+02	2.32202999e+06
3.42000000e+02	2.34402259e+06
3.43000000e+02	2.36625873e+06
3.44000000e+02	2.38874070e+06
3.45000000e+02	2.41147083e+06
3.46000000e+02	2.43445141e+06
3.47000000e+02	2.45768474e+06
3.48000000e+02	2.48117313e+06
3.49000000e+02	2.50491885e+06
3.50000000e+02	2.52892421e+06
3.51000000e+02	2.55319147e+06
3.52000000e+02	2.57772290e+06
3.53000000e+02	2.60252078e+06
3.54000000e+02	2.62758733e+06
3.55000000e+02	2.65292481e+06
3.56000000e+02	2.67853544e+06
3.57000000e+02	2.70442142e+06
3.58000000e+02	2.73058495e+06
3.59000000e+02	2.75702821e+06
3.60000000e+02	2.78375334e+06
3.61000000e+02	2.81076249e+06
3.62000000e+02	2.83805778e+06
3.63000000e+02	2.86564129e+06
3.64000000e+02	2.89351509e+06
3.65000000e+02	2.92168122e+06
3.66000000e+02	2.95014169e+06
3.67000000e+02	2.97889849e+06
3.68000000e+02	3.00795357e+06
3.69000000e+02	3.03730885e+06
3.70000000e+02	3.06696621e+06
3.71000000e+02	3.09692750e+06
3.72000000e+02	3.12719454e+06
3.73000000e+02	3.15776909e+06
3.74000000e+02	3.18865288e+06
3.75000000e+02	3.21984761e+06
3.76000000e+02	3.25135491e+06
3.77000000e+02	3.28317637e+06
3.78000000e+02	3.31531356e+06
3.79000000e+02	3.34776796e+06
3.80000000e+02	3.38054101e+06
3.81000000e+02	3.41363411e+06
3.82000000e+02	3.44704860e+06
3.83000000e+02	3.48078575e+06
3.84000000e+02	3.51484677e+06
3.85000000e+02	3.54923283e+06
3.86000000e+02	3.58394501e+06
3.87000000e+02	3.61898436e+06
3.88000000e+02	3.65435182e+06
3.89000000e+02	3.69004829e+06
3.90000000e+02	3.72607459e+06
3.91000000e+02	3.76243148e+06
3.92000000e+02	3.79911964e+06
3.93000000e+02	3.83613965e+06
3.94000000e+02	3.87349205e+06
3.95000000e+02	3.91117729e+06
3.96000000e+02	3.94919572e+06
3.97000000e+02	3.98754763e+06
3.98000000e+02	4.02623322e+06
3.99000000e+02	4.06525259e+06
4.00000000e+02	4.10460579e+06
4.01000000e+02	4.14429273e+06
4.02000000e+02	4.18431328e+06
4.03000000e+02	4.22466719e+06
4.04000000e+02	4.26535411e+06
4.05000000e+02	4.30637363e+06
4.06000000e+02	4.34772521e+06
4.07000000e+02	4.38940823e+06
4.08000000e+02	4.43142197e+06
4.09000000e+02	4.47376561e+06
4.10000000e+02	4.51643823e+06
4.11000000e+02	4.55943880e+06
4.12000000e+02	4.60276621e+06
4.13000000e+02	4.64641922e+06
4.14000000e+02	4.69039650e+06
4.15000000e+02	4.73469660e+06
4.16000000e+02	4.77931799e+06
4.17000000e+02	4.82425900e+06
4.18000000e+02	4.86951788e+06
4.19000000e+02	4.91509273e+06
4.20000000e+02	4.96098159e+06
4.21000000e+02	5.00718233e+06
4.22000000e+02	5.05369276e+06
4.23000000e+02	5.10051053e+06
4.24000000e+02	5.14763319e+06
4.25000000e+02	5.19505818e+06
4.26000000e+02	5.24278282e+06
4.27000000e+02	5.29080427e+06
4.28000000e+02	5.33911962e+06
4.29000000e+02	5.38772579e+06
4.30000000e+02	5.43661960e+06
4.31000000e+02	5.48579771e+06
4.32000000e+02	5.53525667e+06
4.33000000e+02	5.58499288e+06
4.34000000e+02	5.63500259e+06
4.35000000e+02	5.68528192e+06
4.36000000e+02	5.73582684e+06
4.37000000e+02	5.78663315e+06
4.38000000e+02	5.83769651e+06
4.39000000e+02	5.88901238e+06
4.40000000e+02	5.94057609e+06
4.41000000e+02	5.99238277e+06
4.42000000e+02	6.04442736e+06
4.43000000e+02	6.09670460e+06
4.44000000e+02	6.14920906e+06
4.45000000e+02	6.20193506e+06
4.46000000e+02	6.25487671e+06
4.47000000e+02	6.30802789e+06
4.48000000e+02	6.36138222e+06
4.49000000e+02	6.41493308e+06
4.50000000e+02	6.46867356e+06
4.51000000e+02	6.52259646e+06
4.52000000e+02	6.57669429e+06
4.53000000e+02	6.63095921e+06
4.54000000e+02	6.68538306e+06
4.55000000e+02	6.73995730e+06
4.56000000e+02	6.79467304e+06
4.57000000e+02	6.84952094e+06
4.58000000e+02	6.90449126e+06
4.59000000e+02	6.95957378e+06
4.60000000e+02	7.01475783e+06
4.61000000e+02	7.07003220e+06
4.62000000e+02	7.12538515e+06
4.63000000e+02	7.18080436e+06
4.64000000e+02	7.23627692e+06
4.65000000e+02	7.29178926e+06
4.66000000e+02	7.34732714e+06
4.67000000e+02	7.40287561e+06
4.68000000e+02	7.45841896e+06
4.69000000e+02	7.51394067e+06
4.70000000e+02	7.56942341e+06
4.71000000e+02	7.62484894e+06
4.72000000e+02	7.68019811e+06
4.73000000e+02	7.73545078e+06
4.74000000e+02	7.79058579e+06
4.75000000e+02	7.84558091e+06
4.76000000e+02	7.90041279e+06
4.77000000e+02	7.95505689e+06
4.78000000e+02	8.00948746e+06
4.79000000e+02	8.06367745e+06
4.80000000e+02	8.11759849e+06
4.81000000e+02	8.17122082e+06
4.82000000e+02	8.22451325e+06
4.83000000e+02	8.27744309e+06
4.84000000e+02	8.32997611e+06
4.85000000e+02	8.38207649e+06
4.86000000e+02	8.43370678e+06
4.87000000e+02	8.48482782e+06
4.88000000e+02	8.53539875e+06
4.89000000e+02	8.58537691e+06
4.90000000e+02	8.63471788e+06
4.91000000e+02	8.68337536e+06
4.92000000e+02	8.73130122e+06
4.93000000e+02	8.77844542e+06
4.94000000e+02	8.82475604e+06
4.95000000e+02	8.87017927e+06
4.96000000e+02	8.91465937e+06
4.97000000e+02	8.95813873e+06
4.98000000e+02	9.00055788e+06
4.99000000e+02	9.04185549e+06
5.00000000e+02	9.08196847e+06
5.01000000e+02	9.12083199e+06
5.02000000e+02	9.15837954e+06
5.03000000e+02	9.19454308e+06
5.04000000e+02	9.22925307e+06
5.05000000e+02	9.26243864e+06
5.06000000e+02	9.29402769e+06
5.07000000e+02	9.32394711e+06
5.08000000e+02	9.35212287e+06
5.09000000e+02	9.37848028e+06
5.10000000e+02	9.40294420e+06
5.11000000e+02	9.42543925e+06
5.12000000e+02	9.44589009e+06
5.13000000e+02	9.46422167e+06
5.14000000e+02	9.48035959e+06
5.15000000e+02	9.49423035e+06
5.16000000e+02	9.50576172e+06
5.17000000e+02	9.51488308e+06
5.18000000e+02	9.52152583e+06
5.19000000e+02	9.52562371e+06
5.20000000e+02	9.52711325e+06
5.21000000e+02	9.52593414e+06
5.22000000e+02	9.52202966e+06
5.23000000e+02	9.51534709e+06
5.24000000e+02	9.50583811e+06
5.25000000e+02	9.49345922e+06
5.26000000e+02	9.47817215e+06
5.27000000e+02	9.45994421e+06
5.28000000e+02	9.43874869e+06
5.29000000e+02	9.41456518e+06
5.30000000e+02	9.38737992e+06
5.31000000e+02	9.35718606e+06
5.32000000e+02	9.32398390e+06
5.33000000e+02	9.28778113e+06
5.34000000e+02	9.24859298e+06
5.35000000e+02	9.20644234e+06
5.36000000e+02	9.16135982e+06
5.37000000e+02	9.11338376e+06
5.38000000e+02	9.06256020e+06
5.39000000e+02	9.00894279e+06
5.40000000e+02	8.95259262e+06
5.41000000e+02	8.89357799e+06
5.42000000e+02	8.83197420e+06
5.43000000e+02	8.76786319e+06
5.44000000e+02	8.70133317e+06
5.45000000e+02	8.63247825e+06
5.46000000e+02	8.56139792e+06
5.47000000e+02	8.48819660e+06
5.48000000e+02	8.41298311e+06
5.49000000e+02	8.33587010e+06
5.50000000e+02	8.25697348e+06
5.51000000e+02	8.17641182e+06
5.52000000e+02	8.09430580e+06
5.53000000e+02	8.01077754e+06
5.54000000e+02	7.92595005e+06
5.55000000e+02	7.83994663e+06
5.56000000e+02	7.75289031e+06
5.57000000e+02	7.66490328e+06
5.58000000e+02	7.57610638e+06
5.59000000e+02	7.48661859e+06
5.60000000e+02	7.39655658e+06
5.61000000e+02	7.30603427e+06
5.62000000e+02	7.21516244e+06
5.63000000e+02	7.12404839e+06
5.64000000e+02	7.03279563e+06
5.65000000e+02	6.94150359e+06
5.66000000e+02	6.85026741e+06
5.67000000e+02	6.75917775e+06
5.68000000e+02	6.66832063e+06
5.69000000e+02	6.57777735e+06
5.70000000e+02	6.48762439e+06
5.71000000e+02	6.39793335e+06
5.72000000e+02	6.30877102e+06
5.73000000e+02	6.22019931e+06
5.74000000e+02	6.13227536e+06
5.75000000e+02	6.04505160e+06
5.76000000e+02	5.95857585e+06
5.77000000e+02	5.87289141e+06
5.78000000e+02	5.78803722e+06
5.79000000e+02	5.70404802e+06
5.80000000e+02	5.62095446e+06
5.81000000e+02	5.53878330e+06
5.82000000e+02	5.45755759e+06
5.83000000e+02	5.37729683e+06
5.84000000e+02	5.29801716e+06
5.85000000e+02	5.21973156e+06
5.86000000e+02	5.14245001e+06
5.87000000e+02	5.06617970e+06
5.88000000e+02	4.99092520e+06
5.89000000e+02	4.91668863e+06
5.90000000e+02	4.84346985e+06
5.91000000e+02	4.77126664e+06
5.92000000e+02	4.70007481e+06
5.93000000e+02	4.62988844e+06
5.94000000e+02	4.56069996e+06
5.95000000e+02	4.49250034e+06
5.96000000e+02	4.42527922e+06
5.97000000e+02	4.35902500e+06
5.98000000e+02	4.29372504e+06
5.99000000e+02	4.22936571e+06
6.00000000e+02	4.16593253e+06
6.01000000e+02	4.10341028e+06
6.02000000e+02	4.04178309e+06
6.03000000e+02	3.98103450e+06
6.04000000e+02	3.92114760e+06
6.05000000e+02	3.86210505e+06
6.06000000e+02	3.80388921e+06
6.07000000e+02	3.74648216e+06
6.08000000e+02	3.68986578e+06
6.09000000e+02	3.63402179e+06
6.10000000e+02	3.57893185e+06
6.11000000e+02	3.52457753e+06
6.12000000e+02	3.47094043e+06
6.13000000e+02	3.41800217e+06
6.14000000e+02	3.36574442e+06
6.15000000e+02	3.31414899e+06
6.16000000e+02	3.26319777e+06
6.17000000e+02	3.21287284e+06
6.18000000e+02	3.16315645e+06
6.19000000e+02	3.11403101e+06
6.20000000e+02	3.06547920e+06
6.21000000e+02	3.01748389e+06
6.22000000e+02	2.97002818e+06
6.23000000e+02	2.92309548e+06
6.24000000e+02	2.87666941e+06
6.25000000e+02	2.83073387e+06
6.26000000e+02	2.78527307e+06
6.27000000e+02	2.74027149e+06
6.28000000e+02	2.69571387e+06
6.29000000e+02	2.65158529e+06
6.30000000e+02	2.60787109e+06
6.31000000e+02	2.56455692e+06
6.32000000e+02	2.52162872e+06
6.33000000e+02	2.47907276e+06
6.34000000e+02	2.43687555e+06
6.35000000e+02	2.39502397e+06
6.36000000e+02	2.35350515e+06
6.37000000e+02	2.31230653e+06
6.38000000e+02	2.27141585e+06
6.39000000e+02	2.23082111e+06
6.40000000e+02	2.19051065e+06
6.41000000e+02	2.15047305e+06
6.42000000e+02	2.11069719e+06
6.43000000e+02	2.07117226e+06
6.44000000e+02	2.03188768e+06
6.45000000e+02	1.99283320e+06
6.46000000e+02	1.95399878e+06
6.47000000e+02	1.91537470e+06
6.48000000e+02	1.87695149e+06
6.49000000e+02	1.83871991e+06
6.50000000e+02	1.80067104e+06
6.51000000e+02	1.76279617e+06
6.52000000e+02	1.72508684e+06
6.53000000e+02	1.68753485e+06
6.54000000e+02	1.65013229e+06
6.55000000e+02	1.61287158e+06
6.56000000e+02	1.57574531e+06
6.57000000e+02	1.53874595e+06
6.58000000e+02	1.50186599e+06
6.59000000e+02	1.46509894e+06
