# Profil de ElecX au temps 1.300000000000017e-11 
# simu : /Volumes/MERCURE/JOBS/Zeq1_tanh_50mic_1p5e20_B0_20ps/GNU/ElecX@y-c.set
# col 0 : abscisse (um)
# col 1 : ElecX (V/m)
0.00000000e+00	0.00000000e+00
1.00000000e+00	3.78941477e+03
2.00000000e+00	4.18786315e+03
3.00000000e+00	6.39146877e+03
4.00000000e+00	9.34968906e+03
5.00000000e+00	1.15860323e+04
6.00000000e+00	1.38890265e+04
7.00000000e+00	1.62055012e+04
8.00000000e+00	1.85252208e+04
9.00000000e+00	2.08471859e+04
1.00000000e+01	2.31714923e+04
1.10000000e+01	2.54984632e+04
1.20000000e+01	2.78280581e+04
1.30000000e+01	3.01605826e+04
1.40000000e+01	3.24968713e+04
1.50000000e+01	3.48361209e+04
1.60000000e+01	3.71797244e+04
1.70000000e+01	3.95268962e+04
1.80000000e+01	4.18788085e+04
1.90000000e+01	4.42348037e+04
2.00000000e+01	4.65961132e+04
2.10000000e+01	4.89618708e+04
2.20000000e+01	5.13333773e+04
2.30000000e+01	5.37100840e+04
2.40000000e+01	5.60926934e+04
2.50000000e+01	5.84813567e+04
2.60000000e+01	6.08758147e+04
2.70000000e+01	6.32773368e+04
2.80000000e+01	6.56850752e+04
2.90000000e+01	6.80997477e+04
3.00000000e+01	7.05219171e+04
3.10000000e+01	7.29510596e+04
3.20000000e+01	7.53878080e+04
3.30000000e+01	7.78326718e+04
3.40000000e+01	8.02852860e+04
3.50000000e+01	8.27460823e+04
3.60000000e+01	8.52155901e+04
3.70000000e+01	8.76935917e+04
3.80000000e+01	9.01803848e+04
3.90000000e+01	9.26765140e+04
4.00000000e+01	9.51817841e+04
4.10000000e+01	9.76963503e+04
4.20000000e+01	1.00220910e+05
4.30000000e+01	1.02755391e+05
4.40000000e+01	1.05299598e+05
4.50000000e+01	1.07854284e+05
4.60000000e+01	1.10419552e+05
4.70000000e+01	1.12995330e+05
4.80000000e+01	1.15581835e+05
4.90000000e+01	1.18179585e+05
5.00000000e+01	1.20788571e+05
5.10000000e+01	1.23408541e+05
5.20000000e+01	1.26040390e+05
5.30000000e+01	1.28683935e+05
5.40000000e+01	1.31339385e+05
5.50000000e+01	1.34006606e+05
5.60000000e+01	1.36686385e+05
5.70000000e+01	1.39378421e+05
5.80000000e+01	1.42082942e+05
5.90000000e+01	1.44800094e+05
6.00000000e+01	1.47530238e+05
6.10000000e+01	1.50273414e+05
6.20000000e+01	1.53029461e+05
6.30000000e+01	1.55798966e+05
6.40000000e+01	1.58581845e+05
6.50000000e+01	1.61378449e+05
6.60000000e+01	1.64188362e+05
6.70000000e+01	1.67012392e+05
6.80000000e+01	1.69850322e+05
6.90000000e+01	1.72702461e+05
7.00000000e+01	1.75568393e+05
7.10000000e+01	1.78449014e+05
7.20000000e+01	1.81343971e+05
7.30000000e+01	1.84253604e+05
7.40000000e+01	1.87177502e+05
7.50000000e+01	1.90116610e+05
7.60000000e+01	1.93070490e+05
7.70000000e+01	1.96039461e+05
7.80000000e+01	1.99023184e+05
7.90000000e+01	2.02022474e+05
8.00000000e+01	2.05036899e+05
8.10000000e+01	2.08066899e+05
8.20000000e+01	2.11112005e+05
8.30000000e+01	2.14173036e+05
8.40000000e+01	2.17249630e+05
8.50000000e+01	2.20342112e+05
8.60000000e+01	2.23450088e+05
8.70000000e+01	2.26574282e+05
8.80000000e+01	2.29714429e+05
8.90000000e+01	2.32870700e+05
9.00000000e+01	2.36042968e+05
9.10000000e+01	2.39231522e+05
9.20000000e+01	2.42436509e+05
9.30000000e+01	2.45657797e+05
9.40000000e+01	2.48895547e+05
9.50000000e+01	2.52149685e+05
9.60000000e+01	2.55420576e+05
9.70000000e+01	2.58708054e+05
9.80000000e+01	2.62012336e+05
9.90000000e+01	2.65333131e+05
1.00000000e+02	2.68670963e+05
1.01000000e+02	2.72025656e+05
1.02000000e+02	2.75397301e+05
1.03000000e+02	2.78785999e+05
1.04000000e+02	2.82191540e+05
1.05000000e+02	2.85614441e+05
1.06000000e+02	2.89054395e+05
1.07000000e+02	2.92511626e+05
1.08000000e+02	2.95986185e+05
1.09000000e+02	2.99477839e+05
1.10000000e+02	3.02987088e+05
1.11000000e+02	3.06513746e+05
1.12000000e+02	3.10057803e+05
1.13000000e+02	3.13619532e+05
1.14000000e+02	3.17198642e+05
1.15000000e+02	3.20795504e+05
1.16000000e+02	3.24410037e+05
1.17000000e+02	3.28042306e+05
1.18000000e+02	3.31692328e+05
1.19000000e+02	3.35360259e+05
1.20000000e+02	3.39045923e+05
1.21000000e+02	3.42749630e+05
1.22000000e+02	3.46471279e+05
1.23000000e+02	3.50210988e+05
1.24000000e+02	3.53968783e+05
1.25000000e+02	3.57744691e+05
1.26000000e+02	3.61538854e+05
1.27000000e+02	3.65351212e+05
1.28000000e+02	3.69181853e+05
1.29000000e+02	3.73030937e+05
1.30000000e+02	3.76898413e+05
1.31000000e+02	3.80784352e+05
1.32000000e+02	3.84688870e+05
1.33000000e+02	3.88611994e+05
1.34000000e+02	3.92553785e+05
1.35000000e+02	3.96514327e+05
1.36000000e+02	4.00493685e+05
1.37000000e+02	4.04491907e+05
1.38000000e+02	4.08509102e+05
1.39000000e+02	4.12545331e+05
1.40000000e+02	4.16600675e+05
1.41000000e+02	4.20675204e+05
1.42000000e+02	4.24769016e+05
1.43000000e+02	4.28882192e+05
1.44000000e+02	4.33014811e+05
1.45000000e+02	4.37166972e+05
1.46000000e+02	4.41338778e+05
1.47000000e+02	4.45530322e+05
1.48000000e+02	4.49741695e+05
1.49000000e+02	4.53973016e+05
1.50000000e+02	4.58224391e+05
1.51000000e+02	4.62495928e+05
1.52000000e+02	4.66787741e+05
1.53000000e+02	4.71099963e+05
1.54000000e+02	4.75432578e+05
1.55000000e+02	4.79785901e+05
1.56000000e+02	4.84160059e+05
1.57000000e+02	4.88555159e+05
1.58000000e+02	4.92971333e+05
1.59000000e+02	4.97408731e+05
1.60000000e+02	5.01867499e+05
1.61000000e+02	5.06347792e+05
1.62000000e+02	5.10849776e+05
1.63000000e+02	5.15373614e+05
1.64000000e+02	5.19919472e+05
1.65000000e+02	5.24487471e+05
1.66000000e+02	5.29077888e+05
1.67000000e+02	5.33690893e+05
1.68000000e+02	5.38326696e+05
1.69000000e+02	5.42985500e+05
1.70000000e+02	5.47667514e+05
1.71000000e+02	5.52372954e+05
1.72000000e+02	5.57102042e+05
1.73000000e+02	5.61855009e+05
1.74000000e+02	5.66632092e+05
1.75000000e+02	5.71433534e+05
1.76000000e+02	5.76259589e+05
1.77000000e+02	5.81110504e+05
1.78000000e+02	5.85986566e+05
1.79000000e+02	5.90888038e+05
1.80000000e+02	5.95815206e+05
1.81000000e+02	6.00768361e+05
1.82000000e+02	6.05747805e+05
1.83000000e+02	6.10753846e+05
1.84000000e+02	6.15786796e+05
1.85000000e+02	6.20846990e+05
1.86000000e+02	6.25934758e+05
1.87000000e+02	6.31050449e+05
1.88000000e+02	6.36194198e+05
1.89000000e+02	6.41366621e+05
1.90000000e+02	6.46568133e+05
1.91000000e+02	6.51799100e+05
1.92000000e+02	6.57059913e+05
1.93000000e+02	6.62350969e+05
1.94000000e+02	6.67672677e+05
1.95000000e+02	6.73025460e+05
1.96000000e+02	6.78409750e+05
1.97000000e+02	6.83825993e+05
1.98000000e+02	6.89274647e+05
1.99000000e+02	6.94756184e+05
2.00000000e+02	7.00271084e+05
2.01000000e+02	7.05819845e+05
2.02000000e+02	7.11402974e+05
2.03000000e+02	7.17020991e+05
2.04000000e+02	7.22674429e+05
2.05000000e+02	7.28363835e+05
2.06000000e+02	7.34089766e+05
2.07000000e+02	7.39852796e+05
2.08000000e+02	7.45653509e+05
2.09000000e+02	7.51492503e+05
2.10000000e+02	7.57370393e+05
2.11000000e+02	7.63287802e+05
2.12000000e+02	7.69245373e+05
2.13000000e+02	7.75243759e+05
2.14000000e+02	7.81283629e+05
2.15000000e+02	7.87365667e+05
2.16000000e+02	7.93490569e+05
2.17000000e+02	7.99659050e+05
2.18000000e+02	8.05871837e+05
2.19000000e+02	8.12129674e+05
2.20000000e+02	8.18433318e+05
2.21000000e+02	8.24783544e+05
2.22000000e+02	8.31181142e+05
2.23000000e+02	8.37626916e+05
2.24000000e+02	8.44121690e+05
2.25000000e+02	8.50666300e+05
2.26000000e+02	8.57261601e+05
2.27000000e+02	8.63908463e+05
2.28000000e+02	8.70607773e+05
2.29000000e+02	8.77360435e+05
2.30000000e+02	8.84167370e+05
2.31000000e+02	8.91029515e+05
2.32000000e+02	8.97947826e+05
2.33000000e+02	9.04923273e+05
2.34000000e+02	9.11956848e+05
2.35000000e+02	9.19049556e+05
2.36000000e+02	9.26202423e+05
2.37000000e+02	9.33416490e+05
2.38000000e+02	9.40692818e+05
2.39000000e+02	9.48032485e+05
2.40000000e+02	9.55436587e+05
2.41000000e+02	9.62906238e+05
2.42000000e+02	9.70442571e+05
2.43000000e+02	9.78046736e+05
2.44000000e+02	9.85719904e+05
2.45000000e+02	9.93463261e+05
2.46000000e+02	1.00127801e+06
2.47000000e+02	1.00916539e+06
2.48000000e+02	1.01712663e+06
2.49000000e+02	1.02516300e+06
2.50000000e+02	1.03327578e+06
2.51000000e+02	1.04146626e+06
2.52000000e+02	1.04973578e+06
2.53000000e+02	1.05808567e+06
2.54000000e+02	1.06651728e+06
2.55000000e+02	1.07503200e+06
2.56000000e+02	1.08363122e+06
2.57000000e+02	1.09231635e+06
2.58000000e+02	1.10108884e+06
2.59000000e+02	1.10995014e+06
2.60000000e+02	1.11890171e+06
2.61000000e+02	1.12794506e+06
2.62000000e+02	1.13708170e+06
2.63000000e+02	1.14631317e+06
2.64000000e+02	1.15564101e+06
2.65000000e+02	1.16506680e+06
2.66000000e+02	1.17459213e+06
2.67000000e+02	1.18421861e+06
2.68000000e+02	1.19394788e+06
2.69000000e+02	1.20378159e+06
2.70000000e+02	1.21372142e+06
2.71000000e+02	1.22376905e+06
2.72000000e+02	1.23392620e+06
2.73000000e+02	1.24419460e+06
2.74000000e+02	1.25457601e+06
2.75000000e+02	1.26507219e+06
2.76000000e+02	1.27568495e+06
2.77000000e+02	1.28641610e+06
2.78000000e+02	1.29726747e+06
2.79000000e+02	1.30824092e+06
2.80000000e+02	1.31933832e+06
2.81000000e+02	1.33056158e+06
2.82000000e+02	1.34191260e+06
2.83000000e+02	1.35339333e+06
2.84000000e+02	1.36500572e+06
2.85000000e+02	1.37675176e+06
2.86000000e+02	1.38863344e+06
2.87000000e+02	1.40065279e+06
2.88000000e+02	1.41281185e+06
2.89000000e+02	1.42511268e+06
2.90000000e+02	1.43755737e+06
2.91000000e+02	1.45014802e+06
2.92000000e+02	1.46288676e+06
2.93000000e+02	1.47577573e+06
2.94000000e+02	1.48881711e+06
2.95000000e+02	1.50201308e+06
2.96000000e+02	1.51536586e+06
2.97000000e+02	1.52887769e+06
2.98000000e+02	1.54255080e+06
2.99000000e+02	1.55638749e+06
3.00000000e+02	1.57039004e+06
3.01000000e+02	1.58456077e+06
3.02000000e+02	1.59890204e+06
3.03000000e+02	1.61341619e+06
3.04000000e+02	1.62810561e+06
3.05000000e+02	1.64297270e+06
3.06000000e+02	1.65801989e+06
3.07000000e+02	1.67324963e+06
3.08000000e+02	1.68866438e+06
3.09000000e+02	1.70426664e+06
3.10000000e+02	1.72005891e+06
3.11000000e+02	1.73604373e+06
3.12000000e+02	1.75222364e+06
3.13000000e+02	1.76860123e+06
3.14000000e+02	1.78517909e+06
3.15000000e+02	1.80195983e+06
3.16000000e+02	1.81894609e+06
3.17000000e+02	1.83614053e+06
3.18000000e+02	1.85354581e+06
3.19000000e+02	1.87116464e+06
3.20000000e+02	1.88899974e+06
3.21000000e+02	1.90705383e+06
3.22000000e+02	1.92532967e+06
3.23000000e+02	1.94383004e+06
3.24000000e+02	1.96255773e+06
3.25000000e+02	1.98151555e+06
3.26000000e+02	2.00070632e+06
3.27000000e+02	2.02013289e+06
3.28000000e+02	2.03979813e+06
3.29000000e+02	2.05970490e+06
3.30000000e+02	2.07985611e+06
3.31000000e+02	2.10025467e+06
3.32000000e+02	2.12090350e+06
3.33000000e+02	2.14180553e+06
3.34000000e+02	2.16296373e+06
3.35000000e+02	2.18438105e+06
3.36000000e+02	2.20606048e+06
3.37000000e+02	2.22800500e+06
3.38000000e+02	2.25021762e+06
3.39000000e+02	2.27270133e+06
3.40000000e+02	2.29545917e+06
3.41000000e+02	2.31849414e+06
3.42000000e+02	2.34180930e+06
3.43000000e+02	2.36540767e+06
3.44000000e+02	2.38929229e+06
3.45000000e+02	2.41346623e+06
3.46000000e+02	2.43793251e+06
3.47000000e+02	2.46269420e+06
3.48000000e+02	2.48775434e+06
3.49000000e+02	2.51311598e+06
3.50000000e+02	2.53878216e+06
3.51000000e+02	2.56475594e+06
3.52000000e+02	2.59104033e+06
3.53000000e+02	2.61763837e+06
3.54000000e+02	2.64455308e+06
3.55000000e+02	2.67178747e+06
3.56000000e+02	2.69934453e+06
3.57000000e+02	2.72722723e+06
3.58000000e+02	2.75543855e+06
3.59000000e+02	2.78398144e+06
3.60000000e+02	2.81285881e+06
3.61000000e+02	2.84207358e+06
3.62000000e+02	2.87162862e+06
3.63000000e+02	2.90152679e+06
3.64000000e+02	2.93177091e+06
3.65000000e+02	2.96236379e+06
3.66000000e+02	2.99330817e+06
3.67000000e+02	3.02460679e+06
3.68000000e+02	3.05626234e+06
3.69000000e+02	3.08827747e+06
3.70000000e+02	3.12065477e+06
3.71000000e+02	3.15339683e+06
3.72000000e+02	3.18650613e+06
3.73000000e+02	3.21998516e+06
3.74000000e+02	3.25383632e+06
3.75000000e+02	3.28806196e+06
3.76000000e+02	3.32266438e+06
3.77000000e+02	3.35764580e+06
3.78000000e+02	3.39300841e+06
3.79000000e+02	3.42875430e+06
3.80000000e+02	3.46488551e+06
3.81000000e+02	3.50140398e+06
3.82000000e+02	3.53831161e+06
3.83000000e+02	3.57561020e+06
3.84000000e+02	3.61330147e+06
3.85000000e+02	3.65138706e+06
3.86000000e+02	3.68986851e+06
3.87000000e+02	3.72874728e+06
3.88000000e+02	3.76802474e+06
3.89000000e+02	3.80770216e+06
3.90000000e+02	3.84778069e+06
3.91000000e+02	3.88826140e+06
3.92000000e+02	3.92914525e+06
3.93000000e+02	3.97043309e+06
3.94000000e+02	4.01212565e+06
3.95000000e+02	4.05422355e+06
3.96000000e+02	4.09672730e+06
3.97000000e+02	4.13963727e+06
3.98000000e+02	4.18295374e+06
3.99000000e+02	4.22667682e+06
4.00000000e+02	4.27080652e+06
4.01000000e+02	4.31534272e+06
4.02000000e+02	4.36028516e+06
4.03000000e+02	4.40563343e+06
4.04000000e+02	4.45138699e+06
4.05000000e+02	4.49754516e+06
4.06000000e+02	4.54410713e+06
4.07000000e+02	4.59107192e+06
4.08000000e+02	4.63843841e+06
4.09000000e+02	4.68620533e+06
4.10000000e+02	4.73437125e+06
4.11000000e+02	4.78293461e+06
4.12000000e+02	4.83189367e+06
4.13000000e+02	4.88124653e+06
4.14000000e+02	4.93099113e+06
4.15000000e+02	4.98112528e+06
4.16000000e+02	5.03164658e+06
4.17000000e+02	5.08255249e+06
4.18000000e+02	5.13384029e+06
4.19000000e+02	5.18550711e+06
4.20000000e+02	5.23754989e+06
4.21000000e+02	5.28996541e+06
4.22000000e+02	5.34275027e+06
4.23000000e+02	5.39590089e+06
4.24000000e+02	5.44941353e+06
4.25000000e+02	5.50328424e+06
4.26000000e+02	5.55750891e+06
4.27000000e+02	5.61208325e+06
4.28000000e+02	5.66700277e+06
4.29000000e+02	5.72226281e+06
4.30000000e+02	5.77785848e+06
4.31000000e+02	5.83378474e+06
4.32000000e+02	5.89003633e+06
4.33000000e+02	5.94660779e+06
4.34000000e+02	6.00349345e+06
4.35000000e+02	6.06068744e+06
4.36000000e+02	6.11818366e+06
4.37000000e+02	6.17597580e+06
4.38000000e+02	6.23405733e+06
4.39000000e+02	6.29242145e+06
4.40000000e+02	6.35106115e+06
4.41000000e+02	6.40996916e+06
4.42000000e+02	6.46913795e+06
4.43000000e+02	6.52855970e+06
4.44000000e+02	6.58822634e+06
4.45000000e+02	6.64812948e+06
4.46000000e+02	6.70826043e+06
4.47000000e+02	6.76861016e+06
4.48000000e+02	6.82916932e+06
4.49000000e+02	6.88992818e+06
4.50000000e+02	6.95087666e+06
4.51000000e+02	7.01200426e+06
4.52000000e+02	7.07330005e+06
4.53000000e+02	7.13475268e+06
4.54000000e+02	7.19635030e+06
4.55000000e+02	7.25808059e+06
4.56000000e+02	7.31993066e+06
4.57000000e+02	7.38188711e+06
4.58000000e+02	7.44393589e+06
4.59000000e+02	7.50606235e+06
4.60000000e+02	7.56825116e+06
4.61000000e+02	7.63048628e+06
4.62000000e+02	7.69275091e+06
4.63000000e+02	7.75502746e+06
4.64000000e+02	7.81729748e+06
4.65000000e+02	7.87954164e+06
4.66000000e+02	7.94173964e+06
4.67000000e+02	8.00387020e+06
4.68000000e+02	8.06591097e+06
4.69000000e+02	8.12783849e+06
4.70000000e+02	8.18962810e+06
4.71000000e+02	8.25125393e+06
4.72000000e+02	8.31268879e+06
4.73000000e+02	8.37390413e+06
4.74000000e+02	8.43486997e+06
4.75000000e+02	8.49555482e+06
4.76000000e+02	8.55592563e+06
4.77000000e+02	8.61594771e+06
4.78000000e+02	8.67558467e+06
4.79000000e+02	8.73479835e+06
4.80000000e+02	8.79354874e+06
4.81000000e+02	8.85179394e+06
4.82000000e+02	8.90949009e+06
4.83000000e+02	8.96659131e+06
4.84000000e+02	9.02304963e+06
4.85000000e+02	9.07881494e+06
4.86000000e+02	9.13383498e+06
4.87000000e+02	9.18805526e+06
4.88000000e+02	9.24141904e+06
4.89000000e+02	9.29386730e+06
4.90000000e+02	9.34533875e+06
4.91000000e+02	9.39576978e+06
4.92000000e+02	9.44509451e+06
4.93000000e+02	9.49324477e+06
4.94000000e+02	9.54015018e+06
4.95000000e+02	9.58573815e+06
4.96000000e+02	9.62993399e+06
4.97000000e+02	9.67266094e+06
4.98000000e+02	9.71384035e+06
4.99000000e+02	9.75339171e+06
5.00000000e+02	9.79123290e+06
5.01000000e+02	9.82728026e+06
5.02000000e+02	9.86144887e+06
5.03000000e+02	9.89365269e+06
5.04000000e+02	9.92380489e+06
5.05000000e+02	9.95181804e+06
5.06000000e+02	9.97760448e+06
5.07000000e+02	1.00010766e+07
5.08000000e+02	1.00221472e+07
5.09000000e+02	1.00407299e+07
5.10000000e+02	1.00567395e+07
5.11000000e+02	1.00700924e+07
5.12000000e+02	1.00807072e+07
5.13000000e+02	1.00885050e+07
5.14000000e+02	1.00934099e+07
5.15000000e+02	1.00953495e+07
5.16000000e+02	1.00942557e+07
5.17000000e+02	1.00900646e+07
5.18000000e+02	1.00827179e+07
5.19000000e+02	1.00721624e+07
5.20000000e+02	1.00583513e+07
5.21000000e+02	1.00412444e+07
5.22000000e+02	1.00208086e+07
5.23000000e+02	9.99701822e+06
5.24000000e+02	9.96985561e+06
5.25000000e+02	9.93931139e+06
5.26000000e+02	9.90538484e+06
5.27000000e+02	9.86808412e+06
5.28000000e+02	9.82742652e+06
5.29000000e+02	9.78343861e+06
5.30000000e+02	9.73615631e+06
5.31000000e+02	9.68562493e+06
5.32000000e+02	9.63189913e+06
5.33000000e+02	9.57504274e+06
5.34000000e+02	9.51512862e+06
5.35000000e+02	9.45223836e+06
5.36000000e+02	9.38646195e+06
5.37000000e+02	9.31789735e+06
5.38000000e+02	9.24665003e+06
5.39000000e+02	9.17283247e+06
5.40000000e+02	9.09656349e+06
5.41000000e+02	9.01796770e+06
5.42000000e+02	8.93717478e+06
5.43000000e+02	8.85431878e+06
5.44000000e+02	8.76953742e+06
5.45000000e+02	8.68297130e+06
5.46000000e+02	8.59476317e+06
5.47000000e+02	8.50505720e+06
5.48000000e+02	8.41399819e+06
5.49000000e+02	8.32173088e+06
5.50000000e+02	8.22839927e+06
5.51000000e+02	8.13414587e+06
5.52000000e+02	8.03911116e+06
5.53000000e+02	7.94343292e+06
5.54000000e+02	7.84724574e+06
5.55000000e+02	7.75068047e+06
5.56000000e+02	7.65386380e+06
5.57000000e+02	7.55691788e+06
5.58000000e+02	7.45995991e+06
5.59000000e+02	7.36310193e+06
5.60000000e+02	7.26645053e+06
5.61000000e+02	7.17010668e+06
5.62000000e+02	7.07416559e+06
5.63000000e+02	6.97871660e+06
5.64000000e+02	6.88384319e+06
5.65000000e+02	6.78962291e+06
5.66000000e+02	6.69612744e+06
5.67000000e+02	6.60342266e+06
5.68000000e+02	6.51156876e+06
5.69000000e+02	6.42062032e+06
5.70000000e+02	6.33062650e+06
5.71000000e+02	6.24163121e+06
5.72000000e+02	6.15367326e+06
5.73000000e+02	6.06678660e+06
5.74000000e+02	5.98100053e+06
5.75000000e+02	5.89633988e+06
5.76000000e+02	5.81282527e+06
5.77000000e+02	5.73047334e+06
5.78000000e+02	5.64929695e+06
5.79000000e+02	5.56930547e+06
5.80000000e+02	5.49050492e+06
5.81000000e+02	5.41289827e+06
5.82000000e+02	5.33648561e+06
5.83000000e+02	5.26126440e+06
5.84000000e+02	5.18722965e+06
5.85000000e+02	5.11437411e+06
5.86000000e+02	5.04268851e+06
5.87000000e+02	4.97216166e+06
5.88000000e+02	4.90278071e+06
5.89000000e+02	4.83453124e+06
5.90000000e+02	4.76739746e+06
5.91000000e+02	4.70136235e+06
5.92000000e+02	4.63640776e+06
5.93000000e+02	4.57251458e+06
5.94000000e+02	4.50966286e+06
5.95000000e+02	4.44783188e+06
5.96000000e+02	4.38700028e+06
5.97000000e+02	4.32714618e+06
5.98000000e+02	4.26824721e+06
5.99000000e+02	4.21028064e+06
6.00000000e+02	4.15322345e+06
6.01000000e+02	4.09705237e+06
6.02000000e+02	4.04174396e+06
6.03000000e+02	3.98727469e+06
6.04000000e+02	3.93362092e+06
6.05000000e+02	3.88075905e+06
6.06000000e+02	3.82866547e+06
6.07000000e+02	3.77731664e+06
6.08000000e+02	3.72668912e+06
6.09000000e+02	3.67675962e+06
6.10000000e+02	3.62750499e+06
6.11000000e+02	3.57890226e+06
6.12000000e+02	3.53092870e+06
6.13000000e+02	3.48356176e+06
6.14000000e+02	3.43677916e+06
6.15000000e+02	3.39055889e+06
6.16000000e+02	3.34487916e+06
6.17000000e+02	3.29971853e+06
6.18000000e+02	3.25505582e+06
6.19000000e+02	3.21087014e+06
6.20000000e+02	3.16714098e+06
6.21000000e+02	3.12384805e+06
6.22000000e+02	3.08097144e+06
6.23000000e+02	3.03849158e+06
6.24000000e+02	2.99638920e+06
6.25000000e+02	2.95464541e+06
6.26000000e+02	2.91324166e+06
6.27000000e+02	2.87215971e+06
6.28000000e+02	2.83138168e+06
6.29000000e+02	2.79089007e+06
6.30000000e+02	2.75066771e+06
6.31000000e+02	2.71069781e+06
6.32000000e+02	2.67096392e+06
6.33000000e+02	2.63144997e+06
6.34000000e+02	2.59214026e+06
6.35000000e+02	2.55301947e+06
6.36000000e+02	2.51407265e+06
6.37000000e+02	2.47528517e+06
6.38000000e+02	2.43664282e+06
6.39000000e+02	2.39813176e+06
6.40000000e+02	2.35973857e+06
6.41000000e+02	2.32145020e+06
6.42000000e+02	2.28325396e+06
6.43000000e+02	2.24513759e+06
6.44000000e+02	2.20708916e+06
6.45000000e+02	2.16909717e+06
6.46000000e+02	2.13115057e+06
6.47000000e+02	2.09323869e+06
6.48000000e+02	2.05535131e+06
6.49000000e+02	2.01747847e+06
6.50000000e+02	1.97961072e+06
6.51000000e+02	1.94173905e+06
6.52000000e+02	1.90385481e+06
6.53000000e+02	1.86594963e+06
6.54000000e+02	1.82801584e+06
6.55000000e+02	1.79004666e+06
6.56000000e+02	1.75203400e+06
6.57000000e+02	1.71396874e+06
6.58000000e+02	1.67584667e+06
6.59000000e+02	1.63767739e+06
