# Profil de ElecX au temps 1.700999999999984e-11 
# simu : /Volumes/MERCURE/JOBS/Zeq1_tanh_50mic_1p5e20_B0_20ps/GNU/ElecX@y-c.set
# col 0 : abscisse (um)
# col 1 : ElecX (V/m)
0.00000000e+00	0.00000000e+00
1.00000000e+00	5.50439065e+03
2.00000000e+00	6.58542991e+03
3.00000000e+00	1.00413989e+04
4.00000000e+00	1.44611867e+04
5.00000000e+00	1.79370509e+04
6.00000000e+00	2.15015513e+04
7.00000000e+00	2.50816410e+04
8.00000000e+00	2.86633929e+04
9.00000000e+00	3.22451278e+04
1.00000000e+01	3.58265389e+04
1.10000000e+01	3.94079786e+04
1.20000000e+01	4.29885443e+04
1.30000000e+01	4.65684988e+04
1.40000000e+01	5.01489545e+04
1.50000000e+01	5.37276680e+04
1.60000000e+01	5.73070698e+04
1.70000000e+01	6.08849138e+04
1.80000000e+01	6.44630850e+04
1.90000000e+01	6.80396732e+04
2.00000000e+01	7.16168202e+04
2.10000000e+01	7.51920035e+04
2.20000000e+01	7.87675656e+04
2.30000000e+01	8.23417253e+04
2.40000000e+01	8.59155349e+04
2.50000000e+01	8.94886802e+04
2.60000000e+01	9.30600947e+04
2.70000000e+01	9.66321725e+04
2.80000000e+01	1.00202260e+05
2.90000000e+01	1.03771583e+05
3.00000000e+01	1.07340917e+05
3.10000000e+01	1.10908328e+05
3.20000000e+01	1.14475033e+05
3.30000000e+01	1.18041422e+05
3.40000000e+01	1.21606293e+05
3.50000000e+01	1.25170062e+05
3.60000000e+01	1.28733404e+05
3.70000000e+01	1.32295480e+05
3.80000000e+01	1.35856202e+05
3.90000000e+01	1.39416684e+05
4.00000000e+01	1.42975658e+05
4.10000000e+01	1.46533253e+05
4.20000000e+01	1.50090533e+05
4.30000000e+01	1.53646823e+05
4.40000000e+01	1.57201303e+05
4.50000000e+01	1.60755153e+05
4.60000000e+01	1.64308342e+05
4.70000000e+01	1.67860188e+05
4.80000000e+01	1.71410655e+05
4.90000000e+01	1.74960722e+05
5.00000000e+01	1.78509910e+05
5.10000000e+01	1.82057102e+05
5.20000000e+01	1.85604164e+05
5.30000000e+01	1.89150196e+05
5.40000000e+01	1.92695360e+05
5.50000000e+01	1.96238823e+05
5.60000000e+01	1.99782340e+05
5.70000000e+01	2.03324656e+05
5.80000000e+01	2.06865947e+05
5.90000000e+01	2.10406288e+05
6.00000000e+01	2.13946264e+05
6.10000000e+01	2.17485576e+05
6.20000000e+01	2.21023474e+05
6.30000000e+01	2.24561152e+05
6.40000000e+01	2.28098064e+05
6.50000000e+01	2.31634782e+05
6.60000000e+01	2.35170016e+05
6.70000000e+01	2.38705422e+05
6.80000000e+01	2.42240261e+05
6.90000000e+01	2.45775051e+05
7.00000000e+01	2.49308311e+05
7.10000000e+01	2.52842336e+05
7.20000000e+01	2.56375725e+05
7.30000000e+01	2.59909336e+05
7.40000000e+01	2.63441499e+05
7.50000000e+01	2.66975085e+05
7.60000000e+01	2.70508241e+05
7.70000000e+01	2.74041803e+05
7.80000000e+01	2.77574466e+05
7.90000000e+01	2.81108507e+05
8.00000000e+01	2.84642289e+05
8.10000000e+01	2.88177137e+05
8.20000000e+01	2.91711306e+05
8.30000000e+01	2.95247086e+05
8.40000000e+01	2.98783244e+05
8.50000000e+01	3.02320573e+05
8.60000000e+01	3.05857800e+05
8.70000000e+01	3.09396859e+05
8.80000000e+01	3.12936880e+05
8.90000000e+01	3.16478191e+05
9.00000000e+01	3.20020473e+05
9.10000000e+01	3.23564153e+05
9.20000000e+01	3.27109984e+05
9.30000000e+01	3.30657095e+05
9.40000000e+01	3.34206197e+05
9.50000000e+01	3.37756779e+05
9.60000000e+01	3.41310007e+05
9.70000000e+01	3.44865253e+05
9.80000000e+01	3.48423185e+05
9.90000000e+01	3.51982786e+05
1.00000000e+02	3.55545702e+05
1.01000000e+02	3.59111338e+05
1.02000000e+02	3.62679940e+05
1.03000000e+02	3.66251850e+05
1.04000000e+02	3.69826320e+05
1.05000000e+02	3.73405091e+05
1.06000000e+02	3.76987021e+05
1.07000000e+02	3.80572981e+05
1.08000000e+02	3.84163163e+05
1.09000000e+02	3.87756632e+05
1.10000000e+02	3.91355235e+05
1.11000000e+02	3.94958428e+05
1.12000000e+02	3.98565830e+05
1.13000000e+02	4.02178965e+05
1.14000000e+02	4.05796349e+05
1.15000000e+02	4.09419630e+05
1.16000000e+02	4.13048386e+05
1.17000000e+02	4.16683012e+05
1.18000000e+02	4.20323477e+05
1.19000000e+02	4.23970569e+05
1.20000000e+02	4.27623396e+05
1.21000000e+02	4.31283551e+05
1.22000000e+02	4.34950438e+05
1.23000000e+02	4.38622522e+05
1.24000000e+02	4.42305550e+05
1.25000000e+02	4.45994921e+05
1.26000000e+02	4.49692294e+05
1.27000000e+02	4.53397570e+05
1.28000000e+02	4.57111129e+05
1.29000000e+02	4.60833840e+05
1.30000000e+02	4.64565245e+05
1.31000000e+02	4.68306094e+05
1.32000000e+02	4.72056188e+05
1.33000000e+02	4.75816566e+05
1.34000000e+02	4.79586858e+05
1.35000000e+02	4.83367455e+05
1.36000000e+02	4.87158926e+05
1.37000000e+02	4.90961349e+05
1.38000000e+02	4.94775191e+05
1.39000000e+02	4.98600549e+05
1.40000000e+02	5.02438074e+05
1.41000000e+02	5.06287632e+05
1.42000000e+02	5.10149991e+05
1.43000000e+02	5.14025320e+05
1.44000000e+02	5.17913930e+05
1.45000000e+02	5.21815865e+05
1.46000000e+02	5.25732068e+05
1.47000000e+02	5.29662734e+05
1.48000000e+02	5.33607496e+05
1.49000000e+02	5.37567877e+05
1.50000000e+02	5.41543235e+05
1.51000000e+02	5.45534735e+05
1.52000000e+02	5.49541862e+05
1.53000000e+02	5.53566110e+05
1.54000000e+02	5.57605786e+05
1.55000000e+02	5.61664045e+05
1.56000000e+02	5.65740762e+05
1.57000000e+02	5.69834685e+05
1.58000000e+02	5.73947259e+05
1.59000000e+02	5.78078207e+05
1.60000000e+02	5.82228951e+05
1.61000000e+02	5.86399132e+05
1.62000000e+02	5.90589369e+05
1.63000000e+02	5.94800336e+05
1.64000000e+02	5.99032217e+05
1.65000000e+02	6.03285309e+05
1.66000000e+02	6.07560485e+05
1.67000000e+02	6.11857764e+05
1.68000000e+02	6.16178006e+05
1.69000000e+02	6.20521044e+05
1.70000000e+02	6.24887928e+05
1.71000000e+02	6.29279038e+05
1.72000000e+02	6.33694432e+05
1.73000000e+02	6.38134989e+05
1.74000000e+02	6.42601051e+05
1.75000000e+02	6.47092900e+05
1.76000000e+02	6.51611630e+05
1.77000000e+02	6.56156734e+05
1.78000000e+02	6.60729789e+05
1.79000000e+02	6.65330464e+05
1.80000000e+02	6.69959398e+05
1.81000000e+02	6.74617165e+05
1.82000000e+02	6.79305657e+05
1.83000000e+02	6.84023635e+05
1.84000000e+02	6.88771493e+05
1.85000000e+02	6.93550704e+05
1.86000000e+02	6.98361545e+05
1.87000000e+02	7.03204302e+05
1.88000000e+02	7.08079729e+05
1.89000000e+02	7.12988382e+05
1.90000000e+02	7.17930719e+05
1.91000000e+02	7.22907159e+05
1.92000000e+02	7.27918581e+05
1.93000000e+02	7.32965506e+05
1.94000000e+02	7.38048185e+05
1.95000000e+02	7.43167377e+05
1.96000000e+02	7.48323877e+05
1.97000000e+02	7.53517813e+05
1.98000000e+02	7.58750469e+05
1.99000000e+02	7.64021449e+05
2.00000000e+02	7.69332398e+05
2.01000000e+02	7.74682802e+05
2.02000000e+02	7.80074238e+05
2.03000000e+02	7.85507570e+05
2.04000000e+02	7.90982282e+05
2.05000000e+02	7.96499629e+05
2.06000000e+02	8.02060041e+05
2.07000000e+02	8.07664369e+05
2.08000000e+02	8.13312941e+05
2.09000000e+02	8.19006653e+05
2.10000000e+02	8.24746138e+05
2.11000000e+02	8.30531951e+05
2.12000000e+02	8.36364794e+05
2.13000000e+02	8.42245626e+05
2.14000000e+02	8.48174583e+05
2.15000000e+02	8.54152727e+05
2.16000000e+02	8.60180410e+05
2.17000000e+02	8.66258485e+05
2.18000000e+02	8.72387894e+05
2.19000000e+02	8.78569236e+05
2.20000000e+02	8.84803282e+05
2.21000000e+02	8.91090344e+05
2.22000000e+02	8.97431434e+05
2.23000000e+02	9.03827011e+05
2.24000000e+02	9.10278238e+05
2.25000000e+02	9.16785758e+05
2.26000000e+02	9.23349715e+05
2.27000000e+02	9.29971873e+05
2.28000000e+02	9.36652346e+05
2.29000000e+02	9.43391671e+05
2.30000000e+02	9.50191518e+05
2.31000000e+02	9.57051967e+05
2.32000000e+02	9.63973684e+05
2.33000000e+02	9.70958108e+05
2.34000000e+02	9.78005182e+05
2.35000000e+02	9.85116572e+05
2.36000000e+02	9.92292286e+05
2.37000000e+02	9.99533954e+05
2.38000000e+02	1.00684224e+06
2.39000000e+02	1.01421773e+06
2.40000000e+02	1.02166139e+06
2.41000000e+02	1.02917378e+06
2.42000000e+02	1.03675626e+06
2.43000000e+02	1.04440929e+06
2.44000000e+02	1.05213398e+06
2.45000000e+02	1.05993114e+06
2.46000000e+02	1.06780165e+06
2.47000000e+02	1.07574645e+06
2.48000000e+02	1.08376641e+06
2.49000000e+02	1.09186257e+06
2.50000000e+02	1.10003574e+06
2.51000000e+02	1.10828687e+06
2.52000000e+02	1.11661695e+06
2.53000000e+02	1.12502701e+06
2.54000000e+02	1.13351784e+06
2.55000000e+02	1.14209061e+06
2.56000000e+02	1.15074617e+06
2.57000000e+02	1.15948561e+06
2.58000000e+02	1.16830991e+06
2.59000000e+02	1.17722004e+06
2.60000000e+02	1.18621715e+06
2.61000000e+02	1.19530212e+06
2.62000000e+02	1.20447613e+06
2.63000000e+02	1.21374017e+06
2.64000000e+02	1.22309531e+06
2.65000000e+02	1.23254268e+06
2.66000000e+02	1.24208335e+06
2.67000000e+02	1.25171837e+06
2.68000000e+02	1.26144894e+06
2.69000000e+02	1.27127613e+06
2.70000000e+02	1.28120108e+06
2.71000000e+02	1.29122495e+06
2.72000000e+02	1.30134887e+06
2.73000000e+02	1.31157404e+06
2.74000000e+02	1.32190162e+06
2.75000000e+02	1.33233281e+06
2.76000000e+02	1.34286881e+06
2.77000000e+02	1.35351084e+06
2.78000000e+02	1.36426012e+06
2.79000000e+02	1.37511788e+06
2.80000000e+02	1.38608537e+06
2.81000000e+02	1.39716386e+06
2.82000000e+02	1.40835462e+06
2.83000000e+02	1.41965893e+06
2.84000000e+02	1.43107809e+06
2.85000000e+02	1.44261342e+06
2.86000000e+02	1.45426623e+06
2.87000000e+02	1.46603786e+06
2.88000000e+02	1.47792965e+06
2.89000000e+02	1.48994297e+06
2.90000000e+02	1.50207919e+06
2.91000000e+02	1.51433967e+06
2.92000000e+02	1.52672583e+06
2.93000000e+02	1.53923905e+06
2.94000000e+02	1.55188077e+06
2.95000000e+02	1.56465241e+06
2.96000000e+02	1.57755542e+06
2.97000000e+02	1.59059124e+06
2.98000000e+02	1.60376135e+06
2.99000000e+02	1.61706723e+06
3.00000000e+02	1.63051037e+06
3.01000000e+02	1.64409226e+06
3.02000000e+02	1.65781443e+06
3.03000000e+02	1.67167839e+06
3.04000000e+02	1.68568568e+06
3.05000000e+02	1.69983785e+06
3.06000000e+02	1.71413647e+06
3.07000000e+02	1.72858310e+06
3.08000000e+02	1.74317932e+06
3.09000000e+02	1.75792673e+06
3.10000000e+02	1.77282692e+06
3.11000000e+02	1.78788152e+06
3.12000000e+02	1.80309215e+06
3.13000000e+02	1.81846044e+06
3.14000000e+02	1.83398803e+06
3.15000000e+02	1.84967658e+06
3.16000000e+02	1.86552776e+06
3.17000000e+02	1.88154323e+06
3.18000000e+02	1.89772468e+06
3.19000000e+02	1.91407379e+06
3.20000000e+02	1.93059228e+06
3.21000000e+02	1.94728183e+06
3.22000000e+02	1.96414417e+06
3.23000000e+02	1.98118102e+06
3.24000000e+02	1.99839412e+06
3.25000000e+02	2.01578518e+06
3.26000000e+02	2.03335597e+06
3.27000000e+02	2.05110822e+06
3.28000000e+02	2.06904369e+06
3.29000000e+02	2.08716414e+06
3.30000000e+02	2.10547133e+06
3.31000000e+02	2.12396704e+06
3.32000000e+02	2.14265303e+06
3.33000000e+02	2.16153108e+06
3.34000000e+02	2.18060297e+06
3.35000000e+02	2.19987047e+06
3.36000000e+02	2.21933538e+06
3.37000000e+02	2.23899948e+06
3.38000000e+02	2.25886454e+06
3.39000000e+02	2.27893236e+06
3.40000000e+02	2.29920471e+06
3.41000000e+02	2.31968339e+06
3.42000000e+02	2.34037017e+06
3.43000000e+02	2.36126683e+06
3.44000000e+02	2.38237514e+06
3.45000000e+02	2.40369689e+06
3.46000000e+02	2.42523383e+06
3.47000000e+02	2.44698772e+06
3.48000000e+02	2.46896033e+06
3.49000000e+02	2.49115340e+06
3.50000000e+02	2.51356867e+06
3.51000000e+02	2.53620788e+06
3.52000000e+02	2.55907274e+06
3.53000000e+02	2.58216496e+06
3.54000000e+02	2.60548625e+06
3.55000000e+02	2.62903830e+06
3.56000000e+02	2.65282278e+06
3.57000000e+02	2.67684134e+06
3.58000000e+02	2.70109564e+06
3.59000000e+02	2.72558731e+06
3.60000000e+02	2.75031796e+06
3.61000000e+02	2.77528919e+06
3.62000000e+02	2.80050257e+06
3.63000000e+02	2.82595966e+06
3.64000000e+02	2.85166201e+06
3.65000000e+02	2.87761111e+06
3.66000000e+02	2.90380848e+06
3.67000000e+02	2.93025557e+06
3.68000000e+02	2.95695383e+06
3.69000000e+02	2.98390468e+06
3.70000000e+02	3.01110951e+06
3.71000000e+02	3.03856969e+06
3.72000000e+02	3.06628654e+06
3.73000000e+02	3.09426137e+06
3.74000000e+02	3.12249544e+06
3.75000000e+02	3.15099001e+06
3.76000000e+02	3.17974627e+06
3.77000000e+02	3.20876538e+06
3.78000000e+02	3.23804848e+06
3.79000000e+02	3.26759667e+06
3.80000000e+02	3.29741100e+06
3.81000000e+02	3.32749248e+06
3.82000000e+02	3.35784209e+06
3.83000000e+02	3.38846076e+06
3.84000000e+02	3.41934937e+06
3.85000000e+02	3.45050878e+06
3.86000000e+02	3.48193978e+06
3.87000000e+02	3.51364312e+06
3.88000000e+02	3.54561950e+06
3.89000000e+02	3.57786959e+06
3.90000000e+02	3.61039398e+06
3.91000000e+02	3.64319324e+06
3.92000000e+02	3.67626786e+06
3.93000000e+02	3.70961829e+06
3.94000000e+02	3.74324493e+06
3.95000000e+02	3.77714812e+06
3.96000000e+02	3.81132814e+06
3.97000000e+02	3.84578522e+06
3.98000000e+02	3.88051953e+06
3.99000000e+02	3.91553118e+06
4.00000000e+02	3.95082022e+06
4.01000000e+02	3.98638665e+06
4.02000000e+02	4.02223038e+06
4.03000000e+02	4.05835129e+06
4.04000000e+02	4.09474917e+06
4.05000000e+02	4.13142377e+06
4.06000000e+02	4.16837476e+06
4.07000000e+02	4.20560175e+06
4.08000000e+02	4.24310427e+06
4.09000000e+02	4.28088180e+06
4.10000000e+02	4.31893375e+06
4.11000000e+02	4.35725945e+06
4.12000000e+02	4.39585817e+06
4.13000000e+02	4.43472910e+06
4.14000000e+02	4.47387136e+06
4.15000000e+02	4.51328402e+06
4.16000000e+02	4.55296604e+06
4.17000000e+02	4.59291633e+06
4.18000000e+02	4.63313372e+06
4.19000000e+02	4.67361697e+06
4.20000000e+02	4.71436475e+06
4.21000000e+02	4.75537565e+06
4.22000000e+02	4.79664821e+06
4.23000000e+02	4.83818085e+06
4.24000000e+02	4.87997194e+06
4.25000000e+02	4.92201974e+06
4.26000000e+02	4.96432245e+06
4.27000000e+02	5.00687817e+06
4.28000000e+02	5.04968491e+06
4.29000000e+02	5.09274060e+06
4.30000000e+02	5.13604306e+06
4.31000000e+02	5.17959005e+06
4.32000000e+02	5.22337919e+06
4.33000000e+02	5.26740803e+06
4.34000000e+02	5.31167400e+06
4.35000000e+02	5.35617443e+06
4.36000000e+02	5.40090654e+06
4.37000000e+02	5.44586744e+06
4.38000000e+02	5.49105412e+06
4.39000000e+02	5.53646344e+06
4.40000000e+02	5.58209214e+06
4.41000000e+02	5.62793682e+06
4.42000000e+02	5.67399394e+06
4.43000000e+02	5.72025984e+06
4.44000000e+02	5.76673066e+06
4.45000000e+02	5.81340242e+06
4.46000000e+02	5.86027096e+06
4.47000000e+02	5.90733194e+06
4.48000000e+02	5.95458083e+06
4.49000000e+02	6.00201293e+06
4.50000000e+02	6.04962329e+06
4.51000000e+02	6.09740679e+06
4.52000000e+02	6.14535805e+06
4.53000000e+02	6.19347146e+06
4.54000000e+02	6.24174114e+06
4.55000000e+02	6.29016097e+06
4.56000000e+02	6.33872451e+06
4.57000000e+02	6.38742504e+06
4.58000000e+02	6.43625551e+06
4.59000000e+02	6.48520855e+06
4.60000000e+02	6.53427640e+06
4.61000000e+02	6.58345096e+06
4.62000000e+02	6.63272371e+06
4.63000000e+02	6.68208571e+06
4.64000000e+02	6.73152758e+06
4.65000000e+02	6.78103948e+06
4.66000000e+02	6.83061105e+06
4.67000000e+02	6.88023144e+06
4.68000000e+02	6.92988923e+06
4.69000000e+02	6.97957241e+06
4.70000000e+02	7.02926840e+06
4.71000000e+02	7.07896393e+06
4.72000000e+02	7.12864509e+06
4.73000000e+02	7.17829726e+06
4.74000000e+02	7.22790505e+06
4.75000000e+02	7.27745232e+06
4.76000000e+02	7.32692211e+06
4.77000000e+02	7.37629660e+06
4.78000000e+02	7.42555707e+06
4.79000000e+02	7.47468388e+06
4.80000000e+02	7.52365643e+06
4.81000000e+02	7.57245308e+06
4.82000000e+02	7.62105115e+06
4.83000000e+02	7.66942688e+06
4.84000000e+02	7.71755535e+06
4.85000000e+02	7.76541049e+06
4.86000000e+02	7.81296498e+06
4.87000000e+02	7.86019027e+06
4.88000000e+02	7.90705651e+06
4.89000000e+02	7.95353249e+06
4.90000000e+02	7.99958565e+06
4.91000000e+02	8.04518201e+06
4.92000000e+02	8.09028617e+06
4.93000000e+02	8.13486124e+06
4.94000000e+02	8.17886882e+06
4.95000000e+02	8.22226901e+06
4.96000000e+02	8.26502036e+06
4.97000000e+02	8.30707985e+06
4.98000000e+02	8.34840290e+06
4.99000000e+02	8.38894336e+06
5.00000000e+02	8.42865349e+06
5.01000000e+02	8.46748400e+06
5.02000000e+02	8.50538404e+06
5.03000000e+02	8.54230123e+06
5.04000000e+02	8.57818171e+06
5.05000000e+02	8.61297015e+06
5.06000000e+02	8.64660985e+06
5.07000000e+02	8.67904275e+06
5.08000000e+02	8.71020954e+06
5.09000000e+02	8.74004974e+06
5.10000000e+02	8.76850181e+06
5.11000000e+02	8.79550326e+06
5.12000000e+02	8.82099076e+06
5.13000000e+02	8.84490032e+06
5.14000000e+02	8.86716743e+06
5.15000000e+02	8.88772723e+06
5.16000000e+02	8.90651474e+06
5.17000000e+02	8.92346499e+06
5.18000000e+02	8.93851335e+06
5.19000000e+02	8.95159566e+06
5.20000000e+02	8.96264857e+06
5.21000000e+02	8.97160975e+06
5.22000000e+02	8.97841821e+06
5.23000000e+02	8.98301456e+06
5.24000000e+02	8.98534135e+06
5.25000000e+02	8.98534335e+06
5.26000000e+02	8.98296789e+06
5.27000000e+02	8.97816519e+06
5.28000000e+02	8.97088867e+06
5.29000000e+02	8.96109529e+06
5.30000000e+02	8.94874587e+06
5.31000000e+02	8.93380543e+06
5.32000000e+02	8.91624349e+06
5.33000000e+02	8.89603434e+06
5.34000000e+02	8.87315737e+06
5.35000000e+02	8.84759733e+06
5.36000000e+02	8.81934454e+06
5.37000000e+02	8.78839512e+06
5.38000000e+02	8.75475120e+06
5.39000000e+02	8.71842106e+06
5.40000000e+02	8.67941923e+06
5.41000000e+02	8.63776661e+06
5.42000000e+02	8.59349050e+06
5.43000000e+02	8.54662460e+06
5.44000000e+02	8.49720897e+06
5.45000000e+02	8.44528993e+06
5.46000000e+02	8.39092000e+06
5.47000000e+02	8.33415763e+06
5.48000000e+02	8.27506710e+06
5.49000000e+02	8.21371817e+06
5.50000000e+02	8.15018586e+06
5.51000000e+02	8.08455008e+06
5.52000000e+02	8.01689530e+06
5.53000000e+02	7.94731016e+06
5.54000000e+02	7.87588701e+06
5.55000000e+02	7.80272156e+06
5.56000000e+02	7.72791234e+06
5.57000000e+02	7.65156028e+06
5.58000000e+02	7.57376823e+06
5.59000000e+02	7.49464049e+06
5.60000000e+02	7.41428230e+06
5.61000000e+02	7.33279942e+06
5.62000000e+02	7.25029762e+06
5.63000000e+02	7.16688225e+06
5.64000000e+02	7.08265784e+06
5.65000000e+02	6.99772765e+06
5.66000000e+02	6.91219328e+06
5.67000000e+02	6.82615436e+06
5.68000000e+02	6.73970816e+06
5.69000000e+02	6.65294933e+06
5.70000000e+02	6.56596960e+06
5.71000000e+02	6.47885755e+06
5.72000000e+02	6.39169841e+06
5.73000000e+02	6.30457387e+06
5.74000000e+02	6.21756193e+06
5.75000000e+02	6.13073679e+06
5.76000000e+02	6.04416877e+06
5.77000000e+02	5.95792425e+06
5.78000000e+02	5.87206561e+06
5.79000000e+02	5.78665128e+06
5.80000000e+02	5.70173567e+06
5.81000000e+02	5.61736931e+06
5.82000000e+02	5.53359882e+06
5.83000000e+02	5.45046702e+06
5.84000000e+02	5.36801301e+06
5.85000000e+02	5.28627230e+06
5.86000000e+02	5.20527686e+06
5.87000000e+02	5.12505531e+06
5.88000000e+02	5.04563301e+06
5.89000000e+02	4.96703221e+06
5.90000000e+02	4.88927220e+06
5.91000000e+02	4.81236944e+06
5.92000000e+02	4.73633770e+06
5.93000000e+02	4.66118824e+06
5.94000000e+02	4.58692992e+06
5.95000000e+02	4.51356939e+06
5.96000000e+02	4.44111118e+06
5.97000000e+02	4.36955790e+06
5.98000000e+02	4.29891032e+06
5.99000000e+02	4.22916756e+06
6.00000000e+02	4.16032718e+06
6.01000000e+02	4.09238532e+06
6.02000000e+02	4.02533683e+06
6.03000000e+02	3.95917536e+06
6.04000000e+02	3.89389350e+06
6.05000000e+02	3.82948285e+06
6.06000000e+02	3.76593415e+06
6.07000000e+02	3.70323737e+06
6.08000000e+02	3.64138178e+06
6.09000000e+02	3.58035603e+06
6.10000000e+02	3.52014826e+06
6.11000000e+02	3.46074614e+06
6.12000000e+02	3.40213696e+06
6.13000000e+02	3.34430766e+06
6.14000000e+02	3.28724493e+06
6.15000000e+02	3.23093525e+06
6.16000000e+02	3.17536490e+06
6.17000000e+02	3.12052007e+06
6.18000000e+02	3.06638687e+06
6.19000000e+02	3.01295132e+06
6.20000000e+02	2.96019951e+06
6.21000000e+02	2.90811748e+06
6.22000000e+02	2.85669135e+06
6.23000000e+02	2.80590735e+06
6.24000000e+02	2.75575173e+06
6.25000000e+02	2.70621094e+06
6.26000000e+02	2.65727151e+06
6.27000000e+02	2.60892016e+06
6.28000000e+02	2.56114375e+06
6.29000000e+02	2.51392937e+06
6.30000000e+02	2.46726423e+06
6.31000000e+02	2.42113577e+06
6.32000000e+02	2.37553160e+06
6.33000000e+02	2.33043955e+06
6.34000000e+02	2.28584766e+06
6.35000000e+02	2.24174421e+06
6.36000000e+02	2.19811773e+06
6.37000000e+02	2.15495694e+06
6.38000000e+02	2.11225081e+06
6.39000000e+02	2.06998841e+06
6.40000000e+02	2.02815906e+06
6.41000000e+02	1.98675226e+06
6.42000000e+02	1.94575776e+06
6.43000000e+02	1.90516560e+06
6.44000000e+02	1.86496605e+06
6.45000000e+02	1.82514957e+06
6.46000000e+02	1.78570677e+06
6.47000000e+02	1.74662838e+06
6.48000000e+02	1.70790526e+06
6.49000000e+02	1.66952846e+06
6.50000000e+02	1.63148929e+06
6.51000000e+02	1.59377929e+06
6.52000000e+02	1.55639017e+06
6.53000000e+02	1.51931374e+06
6.54000000e+02	1.48254192e+06
6.55000000e+02	1.44606670e+06
6.56000000e+02	1.40988033e+06
6.57000000e+02	1.37397515e+06
6.58000000e+02	1.33834369e+06
6.59000000e+02	1.30297850e+06
