# Profil de ElecX au temps 1.400000000000019e-11 
# simu : /Volumes/MERCURE/JOBS/Zeq1_tanh_50mic_1p5e20_B0_20ps/GNU/ElecX@y-c.set
# col 0 : abscisse (um)
# col 1 : ElecX (V/m)
0.00000000e+00	0.00000000e+00
1.00000000e+00	4.50360585e+03
2.00000000e+00	5.35895934e+03
3.00000000e+00	8.16067862e+03
4.00000000e+00	1.17690815e+04
5.00000000e+00	1.46006062e+04
6.00000000e+00	1.75036596e+04
7.00000000e+00	2.04202820e+04
8.00000000e+00	2.33392937e+04
9.00000000e+00	2.62594592e+04
1.00000000e+01	2.91807125e+04
1.10000000e+01	3.21033088e+04
1.20000000e+01	3.50269363e+04
1.30000000e+01	3.79518174e+04
1.40000000e+01	4.08788104e+04
1.50000000e+01	4.38066606e+04
1.60000000e+01	4.67369777e+04
1.70000000e+01	4.96685356e+04
1.80000000e+01	5.26026325e+04
1.90000000e+01	5.55382399e+04
2.00000000e+01	5.84767359e+04
2.10000000e+01	6.14167865e+04
2.20000000e+01	6.43599045e+04
2.30000000e+01	6.73051641e+04
2.40000000e+01	7.02532846e+04
2.50000000e+01	7.32042620e+04
2.60000000e+01	7.61575722e+04
2.70000000e+01	7.91146859e+04
2.80000000e+01	8.20742814e+04
2.90000000e+01	8.50371272e+04
3.00000000e+01	8.80037729e+04
3.10000000e+01	9.09733301e+04
3.20000000e+01	9.39464575e+04
3.30000000e+01	9.69236471e+04
3.40000000e+01	9.99042267e+04
3.50000000e+01	1.02888586e+05
3.60000000e+01	1.05877258e+05
3.70000000e+01	1.08869773e+05
3.80000000e+01	1.11866350e+05
3.90000000e+01	1.14867549e+05
4.00000000e+01	1.17872933e+05
4.10000000e+01	1.20882545e+05
4.20000000e+01	1.23897155e+05
4.30000000e+01	1.26916506e+05
4.40000000e+01	1.29940166e+05
4.50000000e+01	1.32968993e+05
4.60000000e+01	1.36002979e+05
4.70000000e+01	1.39041871e+05
4.80000000e+01	1.42085803e+05
4.90000000e+01	1.45135332e+05
5.00000000e+01	1.48190305e+05
5.10000000e+01	1.51250228e+05
5.20000000e+01	1.54316191e+05
5.30000000e+01	1.57387798e+05
5.40000000e+01	1.60465211e+05
5.50000000e+01	1.63548097e+05
5.60000000e+01	1.66637429e+05
5.70000000e+01	1.69732646e+05
5.80000000e+01	1.72833954e+05
5.90000000e+01	1.75941422e+05
6.00000000e+01	1.79055441e+05
6.10000000e+01	1.82175952e+05
6.20000000e+01	1.85302611e+05
6.30000000e+01	1.88436134e+05
6.40000000e+01	1.91576290e+05
6.50000000e+01	1.94723480e+05
6.60000000e+01	1.97877006e+05
6.70000000e+01	2.01037915e+05
6.80000000e+01	2.04205804e+05
6.90000000e+01	2.07381023e+05
7.00000000e+01	2.10562886e+05
7.10000000e+01	2.13752583e+05
7.20000000e+01	2.16949533e+05
7.30000000e+01	2.20154133e+05
7.40000000e+01	2.23365687e+05
7.50000000e+01	2.26585591e+05
7.60000000e+01	2.29813036e+05
7.70000000e+01	2.33048451e+05
7.80000000e+01	2.36291266e+05
7.90000000e+01	2.39542625e+05
8.00000000e+01	2.42801818e+05
8.10000000e+01	2.46069452e+05
8.20000000e+01	2.49344773e+05
8.30000000e+01	2.52628938e+05
8.40000000e+01	2.55921365e+05
8.50000000e+01	2.59222501e+05
8.60000000e+01	2.62531702e+05
8.70000000e+01	2.65850017e+05
8.80000000e+01	2.69177020e+05
8.90000000e+01	2.72512905e+05
9.00000000e+01	2.75857506e+05
9.10000000e+01	2.79211155e+05
9.20000000e+01	2.82574134e+05
9.30000000e+01	2.85946132e+05
9.40000000e+01	2.89327449e+05
9.50000000e+01	2.92717915e+05
9.60000000e+01	2.96118079e+05
9.70000000e+01	2.99527679e+05
9.80000000e+01	3.02947039e+05
9.90000000e+01	3.06375696e+05
1.00000000e+02	3.09814462e+05
1.01000000e+02	3.13263059e+05
1.02000000e+02	3.16721628e+05
1.03000000e+02	3.20190330e+05
1.04000000e+02	3.23668835e+05
1.05000000e+02	3.27157979e+05
1.06000000e+02	3.30657239e+05
1.07000000e+02	3.34167038e+05
1.08000000e+02	3.37687450e+05
1.09000000e+02	3.41218081e+05
1.10000000e+02	3.44759786e+05
1.11000000e+02	3.48312298e+05
1.12000000e+02	3.51875534e+05
1.13000000e+02	3.55450079e+05
1.14000000e+02	3.59035367e+05
1.15000000e+02	3.62632106e+05
1.16000000e+02	3.66240137e+05
1.17000000e+02	3.69859629e+05
1.18000000e+02	3.73490599e+05
1.19000000e+02	3.77133369e+05
1.20000000e+02	3.80787592e+05
1.21000000e+02	3.84453933e+05
1.22000000e+02	3.88132102e+05
1.23000000e+02	3.91822495e+05
1.24000000e+02	3.95525315e+05
1.25000000e+02	3.99240271e+05
1.26000000e+02	4.02967848e+05
1.27000000e+02	4.06707920e+05
1.28000000e+02	4.10460671e+05
1.29000000e+02	4.14226448e+05
1.30000000e+02	4.18005127e+05
1.31000000e+02	4.21796972e+05
1.32000000e+02	4.25602042e+05
1.33000000e+02	4.29420636e+05
1.34000000e+02	4.33252735e+05
1.35000000e+02	4.37098519e+05
1.36000000e+02	4.40958210e+05
1.37000000e+02	4.44831879e+05
1.38000000e+02	4.48719757e+05
1.39000000e+02	4.52621938e+05
1.40000000e+02	4.56538678e+05
1.41000000e+02	4.60470020e+05
1.42000000e+02	4.64416259e+05
1.43000000e+02	4.68377527e+05
1.44000000e+02	4.72353983e+05
1.45000000e+02	4.76345749e+05
1.46000000e+02	4.80353161e+05
1.47000000e+02	4.84376357e+05
1.48000000e+02	4.88415355e+05
1.49000000e+02	4.92470679e+05
1.50000000e+02	4.96542294e+05
1.51000000e+02	5.00630558e+05
1.52000000e+02	5.04735481e+05
1.53000000e+02	5.08857545e+05
1.54000000e+02	5.12996741e+05
1.55000000e+02	5.17153467e+05
1.56000000e+02	5.21327815e+05
1.57000000e+02	5.25520154e+05
1.58000000e+02	5.29730654e+05
1.59000000e+02	5.33959539e+05
1.60000000e+02	5.38207183e+05
1.61000000e+02	5.42473716e+05
1.62000000e+02	5.46759467e+05
1.63000000e+02	5.51064736e+05
1.64000000e+02	5.55389756e+05
1.65000000e+02	5.59734807e+05
1.66000000e+02	5.64100248e+05
1.67000000e+02	5.68486290e+05
1.68000000e+02	5.72893321e+05
1.69000000e+02	5.77321575e+05
1.70000000e+02	5.81771434e+05
1.71000000e+02	5.86243215e+05
1.72000000e+02	5.90737220e+05
1.73000000e+02	5.95253816e+05
1.74000000e+02	5.99793338e+05
1.75000000e+02	6.04356147e+05
1.76000000e+02	6.08942628e+05
1.77000000e+02	6.13553079e+05
1.78000000e+02	6.18187980e+05
1.79000000e+02	6.22847571e+05
1.80000000e+02	6.27532325e+05
1.81000000e+02	6.32242732e+05
1.82000000e+02	6.36979153e+05
1.83000000e+02	6.41742006e+05
1.84000000e+02	6.46531670e+05
1.85000000e+02	6.51348643e+05
1.86000000e+02	6.56193348e+05
1.87000000e+02	6.61066240e+05
1.88000000e+02	6.65967786e+05
1.89000000e+02	6.70898446e+05
1.90000000e+02	6.75858706e+05
1.91000000e+02	6.80849085e+05
1.92000000e+02	6.85870058e+05
1.93000000e+02	6.90922159e+05
1.94000000e+02	6.96005730e+05
1.95000000e+02	7.01121536e+05
1.96000000e+02	7.06270113e+05
1.97000000e+02	7.11451973e+05
1.98000000e+02	7.16667684e+05
1.99000000e+02	7.21917770e+05
2.00000000e+02	7.27202861e+05
2.01000000e+02	7.32523535e+05
2.02000000e+02	7.37880399e+05
2.03000000e+02	7.43274048e+05
2.04000000e+02	7.48705012e+05
2.05000000e+02	7.54174071e+05
2.06000000e+02	7.59681890e+05
2.07000000e+02	7.65229088e+05
2.08000000e+02	7.70816324e+05
2.09000000e+02	7.76444268e+05
2.10000000e+02	7.82113668e+05
2.11000000e+02	7.87825187e+05
2.12000000e+02	7.93579580e+05
2.13000000e+02	7.99377562e+05
2.14000000e+02	8.05219869e+05
2.15000000e+02	8.11107247e+05
2.16000000e+02	8.17040482e+05
2.17000000e+02	8.23020343e+05
2.18000000e+02	8.29047601e+05
2.19000000e+02	8.35123084e+05
2.20000000e+02	8.41247596e+05
2.21000000e+02	8.47421954e+05
2.22000000e+02	8.53647005e+05
2.23000000e+02	8.59923603e+05
2.24000000e+02	8.66252601e+05
2.25000000e+02	8.72634880e+05
2.26000000e+02	8.79071333e+05
2.27000000e+02	8.85562853e+05
2.28000000e+02	8.92110357e+05
2.29000000e+02	8.98714773e+05
2.30000000e+02	9.05377036e+05
2.31000000e+02	9.12098100e+05
2.32000000e+02	9.18878842e+05
2.33000000e+02	9.25720310e+05
2.34000000e+02	9.32623536e+05
2.35000000e+02	9.39589523e+05
2.36000000e+02	9.46619297e+05
2.37000000e+02	9.53713893e+05
2.38000000e+02	9.60874359e+05
2.39000000e+02	9.68101755e+05
2.40000000e+02	9.75397152e+05
2.41000000e+02	9.82761635e+05
2.42000000e+02	9.90196303e+05
2.43000000e+02	9.97702265e+05
2.44000000e+02	1.00528065e+06
2.45000000e+02	1.01293259e+06
2.46000000e+02	1.02065924e+06
2.47000000e+02	1.02846177e+06
2.48000000e+02	1.03634136e+06
2.49000000e+02	1.04429920e+06
2.50000000e+02	1.05233650e+06
2.51000000e+02	1.06045449e+06
2.52000000e+02	1.06865440e+06
2.53000000e+02	1.07693749e+06
2.54000000e+02	1.08530502e+06
2.55000000e+02	1.09375827e+06
2.56000000e+02	1.10229854e+06
2.57000000e+02	1.11092713e+06
2.58000000e+02	1.11964538e+06
2.59000000e+02	1.12845462e+06
2.60000000e+02	1.13735621e+06
2.61000000e+02	1.14635151e+06
2.62000000e+02	1.15544190e+06
2.63000000e+02	1.16462880e+06
2.64000000e+02	1.17391360e+06
2.65000000e+02	1.18329774e+06
2.66000000e+02	1.19278266e+06
2.67000000e+02	1.20236982e+06
2.68000000e+02	1.21206070e+06
2.69000000e+02	1.22185678e+06
2.70000000e+02	1.23175958e+06
2.71000000e+02	1.24177061e+06
2.72000000e+02	1.25189141e+06
2.73000000e+02	1.26212354e+06
2.74000000e+02	1.27246856e+06
2.75000000e+02	1.28292806e+06
2.76000000e+02	1.29350364e+06
2.77000000e+02	1.30419693e+06
2.78000000e+02	1.31500954e+06
2.79000000e+02	1.32594315e+06
2.80000000e+02	1.33699941e+06
2.81000000e+02	1.34818000e+06
2.82000000e+02	1.35948664e+06
2.83000000e+02	1.37092104e+06
2.84000000e+02	1.38248493e+06
2.85000000e+02	1.39418007e+06
2.86000000e+02	1.40600823e+06
2.87000000e+02	1.41797120e+06
2.88000000e+02	1.43007078e+06
2.89000000e+02	1.44230880e+06
2.90000000e+02	1.45468710e+06
2.91000000e+02	1.46720753e+06
2.92000000e+02	1.47987197e+06
2.93000000e+02	1.49268233e+06
2.94000000e+02	1.50564050e+06
2.95000000e+02	1.51874843e+06
2.96000000e+02	1.53200805e+06
2.97000000e+02	1.54542135e+06
2.98000000e+02	1.55899031e+06
2.99000000e+02	1.57271692e+06
3.00000000e+02	1.58660322e+06
3.01000000e+02	1.60065125e+06
3.02000000e+02	1.61486306e+06
3.03000000e+02	1.62924074e+06
3.04000000e+02	1.64378638e+06
3.05000000e+02	1.65850210e+06
3.06000000e+02	1.67339003e+06
3.07000000e+02	1.68845233e+06
3.08000000e+02	1.70369117e+06
3.09000000e+02	1.71910874e+06
3.10000000e+02	1.73470724e+06
3.11000000e+02	1.75048891e+06
3.12000000e+02	1.76645599e+06
3.13000000e+02	1.78261074e+06
3.14000000e+02	1.79895544e+06
3.15000000e+02	1.81549240e+06
3.16000000e+02	1.83222392e+06
3.17000000e+02	1.84915235e+06
3.18000000e+02	1.86628003e+06
3.19000000e+02	1.88360934e+06
3.20000000e+02	1.90114265e+06
3.21000000e+02	1.91888237e+06
3.22000000e+02	1.93683091e+06
3.23000000e+02	1.95499072e+06
3.24000000e+02	1.97336423e+06
3.25000000e+02	1.99195391e+06
3.26000000e+02	2.01076225e+06
3.27000000e+02	2.02979173e+06
3.28000000e+02	2.04904486e+06
3.29000000e+02	2.06852417e+06
3.30000000e+02	2.08823217e+06
3.31000000e+02	2.10817143e+06
3.32000000e+02	2.12834450e+06
3.33000000e+02	2.14875394e+06
3.34000000e+02	2.16940233e+06
3.35000000e+02	2.19029227e+06
3.36000000e+02	2.21142635e+06
3.37000000e+02	2.23280718e+06
3.38000000e+02	2.25443736e+06
3.39000000e+02	2.27631953e+06
3.40000000e+02	2.29845630e+06
3.41000000e+02	2.32085032e+06
3.42000000e+02	2.34350420e+06
3.43000000e+02	2.36642060e+06
3.44000000e+02	2.38960215e+06
3.45000000e+02	2.41305150e+06
3.46000000e+02	2.43677128e+06
3.47000000e+02	2.46076414e+06
3.48000000e+02	2.48503271e+06
3.49000000e+02	2.50957964e+06
3.50000000e+02	2.53440754e+06
3.51000000e+02	2.55951905e+06
3.52000000e+02	2.58491678e+06
3.53000000e+02	2.61060334e+06
3.54000000e+02	2.63658132e+06
3.55000000e+02	2.66285332e+06
3.56000000e+02	2.68942190e+06
3.57000000e+02	2.71628963e+06
3.58000000e+02	2.74345905e+06
3.59000000e+02	2.77093267e+06
3.60000000e+02	2.79871301e+06
3.61000000e+02	2.82680255e+06
3.62000000e+02	2.85520375e+06
3.63000000e+02	2.88391904e+06
3.64000000e+02	2.91295084e+06
3.65000000e+02	2.94230152e+06
3.66000000e+02	2.97197344e+06
3.67000000e+02	3.00196891e+06
3.68000000e+02	3.03229021e+06
3.69000000e+02	3.06293960e+06
3.70000000e+02	3.09391928e+06
3.71000000e+02	3.12523141e+06
3.72000000e+02	3.15687814e+06
3.73000000e+02	3.18886153e+06
3.74000000e+02	3.22118362e+06
3.75000000e+02	3.25384639e+06
3.76000000e+02	3.28685178e+06
3.77000000e+02	3.32020167e+06
3.78000000e+02	3.35389788e+06
3.79000000e+02	3.38794218e+06
3.80000000e+02	3.42233627e+06
3.81000000e+02	3.45708180e+06
3.82000000e+02	3.49218034e+06
3.83000000e+02	3.52763339e+06
3.84000000e+02	3.56344242e+06
3.85000000e+02	3.59960877e+06
3.86000000e+02	3.63613374e+06
3.87000000e+02	3.67301855e+06
3.88000000e+02	3.71026435e+06
3.89000000e+02	3.74787217e+06
3.90000000e+02	3.78584300e+06
3.91000000e+02	3.82417772e+06
3.92000000e+02	3.86287713e+06
3.93000000e+02	3.90194193e+06
3.94000000e+02	3.94137275e+06
3.95000000e+02	3.98117009e+06
3.96000000e+02	4.02133438e+06
3.97000000e+02	4.06186595e+06
3.98000000e+02	4.10276500e+06
3.99000000e+02	4.14403167e+06
4.00000000e+02	4.18566596e+06
4.01000000e+02	4.22766777e+06
4.02000000e+02	4.27003691e+06
4.03000000e+02	4.31277304e+06
4.04000000e+02	4.35587575e+06
4.05000000e+02	4.39934448e+06
4.06000000e+02	4.44317857e+06
4.07000000e+02	4.48737725e+06
4.08000000e+02	4.53193961e+06
4.09000000e+02	4.57686462e+06
4.10000000e+02	4.62215115e+06
4.11000000e+02	4.66779792e+06
4.12000000e+02	4.71380353e+06
4.13000000e+02	4.76016645e+06
4.14000000e+02	4.80688504e+06
4.15000000e+02	4.85395751e+06
4.16000000e+02	4.90138194e+06
4.17000000e+02	4.94915627e+06
4.18000000e+02	4.99727834e+06
4.19000000e+02	5.04574580e+06
4.20000000e+02	5.09455622e+06
4.21000000e+02	5.14370698e+06
4.22000000e+02	5.19319535e+06
4.23000000e+02	5.24301845e+06
4.24000000e+02	5.29317326e+06
4.25000000e+02	5.34365662e+06
4.26000000e+02	5.39446520e+06
4.27000000e+02	5.44559554e+06
4.28000000e+02	5.49704402e+06
4.29000000e+02	5.54880689e+06
4.30000000e+02	5.60088020e+06
4.31000000e+02	5.65325989e+06
4.32000000e+02	5.70594169e+06
4.33000000e+02	5.75892121e+06
4.34000000e+02	5.81219385e+06
4.35000000e+02	5.86575486e+06
4.36000000e+02	5.91959931e+06
4.37000000e+02	5.97372208e+06
4.38000000e+02	6.02811786e+06
4.39000000e+02	6.08278114e+06
4.40000000e+02	6.13770622e+06
4.41000000e+02	6.19288719e+06
4.42000000e+02	6.24831789e+06
4.43000000e+02	6.30399198e+06
4.44000000e+02	6.35990284e+06
4.45000000e+02	6.41604362e+06
4.46000000e+02	6.47240721e+06
4.47000000e+02	6.52898621e+06
4.48000000e+02	6.58577296e+06
4.49000000e+02	6.64275947e+06
4.50000000e+02	6.69993743e+06
4.51000000e+02	6.75729821e+06
4.52000000e+02	6.81483280e+06
4.53000000e+02	6.87253184e+06
4.54000000e+02	6.93038555e+06
4.55000000e+02	6.98838372e+06
4.56000000e+02	7.04651571e+06
4.57000000e+02	7.10477039e+06
4.58000000e+02	7.16313613e+06
4.59000000e+02	7.22160077e+06
4.60000000e+02	7.28015158e+06
4.61000000e+02	7.33877523e+06
4.62000000e+02	7.39745774e+06
4.63000000e+02	7.45618447e+06
4.64000000e+02	7.51494007e+06
4.65000000e+02	7.57370842e+06
4.66000000e+02	7.63247260e+06
4.67000000e+02	7.69121487e+06
4.68000000e+02	7.74991658e+06
4.69000000e+02	7.80855812e+06
4.70000000e+02	7.86711894e+06
4.71000000e+02	7.92557739e+06
4.72000000e+02	7.98391076e+06
4.73000000e+02	8.04209518e+06
4.74000000e+02	8.10010556e+06
4.75000000e+02	8.15791555e+06
4.76000000e+02	8.21549748e+06
4.77000000e+02	8.27282229e+06
4.78000000e+02	8.32985947e+06
4.79000000e+02	8.38657700e+06
4.80000000e+02	8.44294132e+06
4.81000000e+02	8.49891723e+06
4.82000000e+02	8.55446784e+06
4.83000000e+02	8.60955453e+06
4.84000000e+02	8.66413690e+06
4.85000000e+02	8.71817269e+06
4.86000000e+02	8.77161774e+06
4.87000000e+02	8.82442597e+06
4.88000000e+02	8.87654929e+06
4.89000000e+02	8.92793763e+06
4.90000000e+02	8.97853885e+06
4.91000000e+02	9.02829873e+06
4.92000000e+02	9.07716101e+06
4.93000000e+02	9.12506729e+06
4.94000000e+02	9.17195711e+06
4.95000000e+02	9.21776794e+06
4.96000000e+02	9.26243521e+06
4.97000000e+02	9.30589232e+06
4.98000000e+02	9.34807074e+06
4.99000000e+02	9.38890005e+06
5.00000000e+02	9.42830804e+06
5.01000000e+02	9.46622082e+06
5.02000000e+02	9.50256289e+06
5.03000000e+02	9.53725737e+06
5.04000000e+02	9.57022608e+06
5.05000000e+02	9.60138979e+06
5.06000000e+02	9.63066838e+06
5.07000000e+02	9.65798110e+06
5.08000000e+02	9.68324679e+06
5.09000000e+02	9.70638422e+06
5.10000000e+02	9.72731232e+06
5.11000000e+02	9.74595055e+06
5.12000000e+02	9.76221923e+06
5.13000000e+02	9.77603990e+06
5.14000000e+02	9.78733575e+06
5.15000000e+02	9.79603198e+06
5.16000000e+02	9.80205625e+06
5.17000000e+02	9.80533912e+06
5.18000000e+02	9.80581450e+06
5.19000000e+02	9.80342010e+06
5.20000000e+02	9.79809788e+06
5.21000000e+02	9.78979457e+06
5.22000000e+02	9.77846205e+06
5.23000000e+02	9.76405787e+06
5.24000000e+02	9.74654565e+06
5.25000000e+02	9.72589549e+06
5.26000000e+02	9.70208439e+06
5.27000000e+02	9.67509659e+06
5.28000000e+02	9.64492389e+06
5.29000000e+02	9.61156598e+06
5.30000000e+02	9.57503061e+06
5.31000000e+02	9.53533384e+06
5.32000000e+02	9.49250017e+06
5.33000000e+02	9.44656256e+06
5.34000000e+02	9.39756253e+06
5.35000000e+02	9.34555004e+06
5.36000000e+02	9.29058346e+06
5.37000000e+02	9.23272931e+06
5.38000000e+02	9.17206208e+06
5.39000000e+02	9.10866392e+06
5.40000000e+02	9.04262428e+06
5.41000000e+02	8.97403947e+06
5.42000000e+02	8.90301224e+06
5.43000000e+02	8.82965120e+06
5.44000000e+02	8.75407032e+06
5.45000000e+02	8.67638830e+06
5.46000000e+02	8.59672794e+06
5.47000000e+02	8.51521552e+06
5.48000000e+02	8.43198011e+06
5.49000000e+02	8.34715294e+06
5.50000000e+02	8.26086665e+06
5.51000000e+02	8.17325473e+06
5.52000000e+02	8.08445075e+06
5.53000000e+02	7.99458784e+06
5.54000000e+02	7.90379798e+06
5.55000000e+02	7.81221151e+06
5.56000000e+02	7.71995651e+06
5.57000000e+02	7.62715833e+06
5.58000000e+02	7.53393914e+06
5.59000000e+02	7.44041746e+06
5.60000000e+02	7.34670785e+06
5.61000000e+02	7.25292053e+06
5.62000000e+02	7.15916110e+06
5.63000000e+02	7.06553035e+06
5.64000000e+02	6.97212402e+06
5.65000000e+02	6.87903268e+06
5.66000000e+02	6.78634163e+06
5.67000000e+02	6.69413081e+06
5.68000000e+02	6.60247482e+06
5.69000000e+02	6.51144290e+06
5.70000000e+02	6.42109897e+06
5.71000000e+02	6.33150172e+06
5.72000000e+02	6.24270471e+06
5.73000000e+02	6.15475644e+06
5.74000000e+02	6.06770058e+06
5.75000000e+02	5.98157606e+06
5.76000000e+02	5.89641724e+06
5.77000000e+02	5.81225414e+06
5.78000000e+02	5.72911260e+06
5.79000000e+02	5.64701449e+06
5.80000000e+02	5.56597790e+06
5.81000000e+02	5.48601737e+06
5.82000000e+02	5.40714408e+06
5.83000000e+02	5.32936605e+06
5.84000000e+02	5.25268838e+06
5.85000000e+02	5.17711340e+06
5.86000000e+02	5.10264090e+06
5.87000000e+02	5.02926831e+06
5.88000000e+02	4.95699087e+06
5.89000000e+02	4.88580186e+06
5.90000000e+02	4.81569268e+06
5.91000000e+02	4.74665309e+06
5.92000000e+02	4.67867134e+06
5.93000000e+02	4.61173431e+06
5.94000000e+02	4.54582766e+06
5.95000000e+02	4.48093593e+06
5.96000000e+02	4.41704271e+06
5.97000000e+02	4.35413072e+06
5.98000000e+02	4.29218195e+06
5.99000000e+02	4.23117771e+06
6.00000000e+02	4.17109877e+06
6.01000000e+02	4.11192541e+06
6.02000000e+02	4.05363755e+06
6.03000000e+02	3.99621475e+06
6.04000000e+02	3.93963634e+06
6.05000000e+02	3.88388147e+06
6.06000000e+02	3.82892913e+06
6.07000000e+02	3.77475825e+06
6.08000000e+02	3.72134770e+06
6.09000000e+02	3.66867637e+06
6.10000000e+02	3.61672322e+06
6.11000000e+02	3.56546723e+06
6.12000000e+02	3.51488754e+06
6.13000000e+02	3.46496341e+06
6.14000000e+02	3.41567424e+06
6.15000000e+02	3.36699967e+06
6.16000000e+02	3.31891948e+06
6.17000000e+02	3.27141373e+06
6.18000000e+02	3.22446267e+06
6.19000000e+02	3.17804681e+06
6.20000000e+02	3.13214695e+06
6.21000000e+02	3.08674412e+06
6.22000000e+02	3.04181966e+06
6.23000000e+02	2.99735517e+06
6.24000000e+02	2.95333255e+06
6.25000000e+02	2.90973400e+06
6.26000000e+02	2.86654203e+06
6.27000000e+02	2.82373944e+06
6.28000000e+02	2.78130931e+06
6.29000000e+02	2.73923511e+06
6.30000000e+02	2.69750053e+06
6.31000000e+02	2.65608963e+06
6.32000000e+02	2.61498677e+06
6.33000000e+02	2.57417663e+06
6.34000000e+02	2.53364418e+06
6.35000000e+02	2.49337471e+06
6.36000000e+02	2.45335384e+06
6.37000000e+02	2.41356749e+06
6.38000000e+02	2.37400191e+06
6.39000000e+02	2.33464365e+06
6.40000000e+02	2.29547959e+06
6.41000000e+02	2.25649692e+06
6.42000000e+02	2.21768316e+06
6.43000000e+02	2.17902612e+06
6.44000000e+02	2.14051394e+06
6.45000000e+02	2.10213509e+06
6.46000000e+02	2.06387836e+06
6.47000000e+02	2.02573284e+06
6.48000000e+02	1.98768796e+06
6.49000000e+02	1.94973344e+06
6.50000000e+02	1.91185938e+06
6.51000000e+02	1.87405619e+06
6.52000000e+02	1.83631461e+06
6.53000000e+02	1.79862567e+06
6.54000000e+02	1.76098078e+06
6.55000000e+02	1.72337167e+06
6.56000000e+02	1.68579041e+06
6.57000000e+02	1.64822940e+06
6.58000000e+02	1.61068138e+06
6.59000000e+02	1.57313947e+06
