# Profil de FluxX au temps 9.000000000000108e-12 
# simu : /Volumes/MERCURE/JOBS/Zeq1_tanh_50mic_1p5e20_B0_20ps/GNU/FluxX@y-c.set
# col 0 : abscisse (um)
# col 1 : FluxX (W/cm2)
0.00000000e+00	0.00000000e+00
1.00000000e+00	4.58778534e+08
2.00000000e+00	9.17879360e+08
3.00000000e+00	1.37847739e+09
4.00000000e+00	1.84027623e+09
5.00000000e+00	2.30410537e+09
6.00000000e+00	2.77049657e+09
7.00000000e+00	3.23997234e+09
8.00000000e+00	3.71305379e+09
9.00000000e+00	4.19026337e+09
1.00000000e+01	4.67212617e+09
1.10000000e+01	5.15917043e+09
1.20000000e+01	5.65192792e+09
1.30000000e+01	6.15093431e+09
1.40000000e+01	6.65672948e+09
1.50000000e+01	7.16985790e+09
1.60000000e+01	7.69086894e+09
1.70000000e+01	8.22031723e+09
1.80000000e+01	8.75876300e+09
1.90000000e+01	9.30677241e+09
2.00000000e+01	9.86491788e+09
2.10000000e+01	1.04337784e+10
2.20000000e+01	1.10139400e+10
2.30000000e+01	1.16059958e+10
2.40000000e+01	1.22105466e+10
2.50000000e+01	1.28282011e+10
2.60000000e+01	1.34595762e+10
2.70000000e+01	1.41052973e+10
2.80000000e+01	1.47659987e+10
2.90000000e+01	1.54423239e+10
3.00000000e+01	1.61349256e+10
3.10000000e+01	1.68444667e+10
3.20000000e+01	1.75716197e+10
3.30000000e+01	1.83170679e+10
3.40000000e+01	1.90815049e+10
3.50000000e+01	1.98656353e+10
3.60000000e+01	2.06701752e+10
3.70000000e+01	2.14958518e+10
3.80000000e+01	2.23434042e+10
3.90000000e+01	2.32135838e+10
4.00000000e+01	2.41071540e+10
4.10000000e+01	2.50248908e+10
4.20000000e+01	2.59675831e+10
4.30000000e+01	2.69360328e+10
4.40000000e+01	2.79310551e+10
4.50000000e+01	2.89534788e+10
4.60000000e+01	3.00041464e+10
4.70000000e+01	3.10839143e+10
4.80000000e+01	3.21936532e+10
4.90000000e+01	3.33342482e+10
5.00000000e+01	3.45065990e+10
5.10000000e+01	3.57116200e+10
5.20000000e+01	3.69502406e+10
5.30000000e+01	3.82234056e+10
5.40000000e+01	3.95320746e+10
5.50000000e+01	4.08772232e+10
5.60000000e+01	4.22598423e+10
5.70000000e+01	4.36809385e+10
5.80000000e+01	4.51415346e+10
5.90000000e+01	4.66426691e+10
6.00000000e+01	4.81853966e+10
6.10000000e+01	4.97707881e+10
6.20000000e+01	5.13999308e+10
6.30000000e+01	5.30739281e+10
6.40000000e+01	5.47938998e+10
6.50000000e+01	5.65609825e+10
6.60000000e+01	5.83763287e+10
6.70000000e+01	6.02411080e+10
6.80000000e+01	6.21565060e+10
6.90000000e+01	6.41237251e+10
7.00000000e+01	6.61439841e+10
7.10000000e+01	6.82185181e+10
7.20000000e+01	7.03485788e+10
7.30000000e+01	7.25354341e+10
7.40000000e+01	7.47803682e+10
7.50000000e+01	7.70846813e+10
7.60000000e+01	7.94496897e+10
7.70000000e+01	8.18767257e+10
7.80000000e+01	8.43671372e+10
7.90000000e+01	8.69222878e+10
8.00000000e+01	8.95435565e+10
8.10000000e+01	9.22323374e+10
8.20000000e+01	9.49900397e+10
8.30000000e+01	9.78180875e+10
8.40000000e+01	1.00717919e+11
8.50000000e+01	1.03690987e+11
8.60000000e+01	1.06738759e+11
8.70000000e+01	1.09862714e+11
8.80000000e+01	1.13064347e+11
8.90000000e+01	1.16345164e+11
9.00000000e+01	1.19706684e+11
9.10000000e+01	1.23150440e+11
9.20000000e+01	1.26677974e+11
9.30000000e+01	1.30290842e+11
9.40000000e+01	1.33990610e+11
9.50000000e+01	1.37778854e+11
9.60000000e+01	1.41657161e+11
9.70000000e+01	1.45627128e+11
9.80000000e+01	1.49690359e+11
9.90000000e+01	1.53848469e+11
1.00000000e+02	1.58103080e+11
1.01000000e+02	1.62455821e+11
1.02000000e+02	1.66908328e+11
1.03000000e+02	1.71462245e+11
1.04000000e+02	1.76119220e+11
1.05000000e+02	1.80880905e+11
1.06000000e+02	1.85748960e+11
1.07000000e+02	1.90725044e+11
1.08000000e+02	1.95810822e+11
1.09000000e+02	2.01007962e+11
1.10000000e+02	2.06318130e+11
1.11000000e+02	2.11742998e+11
1.12000000e+02	2.17284232e+11
1.13000000e+02	2.22943503e+11
1.14000000e+02	2.28722476e+11
1.15000000e+02	2.34622817e+11
1.16000000e+02	2.40646186e+11
1.17000000e+02	2.46794242e+11
1.18000000e+02	2.53068637e+11
1.19000000e+02	2.59471019e+11
1.20000000e+02	2.66003027e+11
1.21000000e+02	2.72666296e+11
1.22000000e+02	2.79462449e+11
1.23000000e+02	2.86393103e+11
1.24000000e+02	2.93459863e+11
1.25000000e+02	3.00664323e+11
1.26000000e+02	3.08008066e+11
1.27000000e+02	3.15492661e+11
1.28000000e+02	3.23119664e+11
1.29000000e+02	3.30890616e+11
1.30000000e+02	3.38807042e+11
1.31000000e+02	3.46870449e+11
1.32000000e+02	3.55082329e+11
1.33000000e+02	3.63444152e+11
1.34000000e+02	3.71957371e+11
1.35000000e+02	3.80623417e+11
1.36000000e+02	3.89443699e+11
1.37000000e+02	3.98419605e+11
1.38000000e+02	4.07552497e+11
1.39000000e+02	4.16843714e+11
1.40000000e+02	4.26294569e+11
1.41000000e+02	4.35906348e+11
1.42000000e+02	4.45680309e+11
1.43000000e+02	4.55617683e+11
1.44000000e+02	4.65719669e+11
1.45000000e+02	4.75987439e+11
1.46000000e+02	4.86422129e+11
1.47000000e+02	4.97024847e+11
1.48000000e+02	5.07796664e+11
1.49000000e+02	5.18738620e+11
1.50000000e+02	5.29851716e+11
1.51000000e+02	5.41136920e+11
1.52000000e+02	5.52595161e+11
1.53000000e+02	5.64227332e+11
1.54000000e+02	5.76034286e+11
1.55000000e+02	5.88016835e+11
1.56000000e+02	6.00175753e+11
1.57000000e+02	6.12511771e+11
1.58000000e+02	6.25025578e+11
1.59000000e+02	6.37717821e+11
1.60000000e+02	6.50589103e+11
1.61000000e+02	6.63639981e+11
1.62000000e+02	6.76870969e+11
1.63000000e+02	6.90282534e+11
1.64000000e+02	7.03875097e+11
1.65000000e+02	7.17649029e+11
1.66000000e+02	7.31604657e+11
1.67000000e+02	7.45742258e+11
1.68000000e+02	7.60062059e+11
1.69000000e+02	7.74564239e+11
1.70000000e+02	7.89248924e+11
1.71000000e+02	8.04116191e+11
1.72000000e+02	8.19166068e+11
1.73000000e+02	8.34398527e+11
1.74000000e+02	8.49813491e+11
1.75000000e+02	8.65410829e+11
1.76000000e+02	8.81190358e+11
1.77000000e+02	8.97151841e+11
1.78000000e+02	9.13294988e+11
1.79000000e+02	9.29619456e+11
1.80000000e+02	9.46124846e+11
1.81000000e+02	9.62810706e+11
1.82000000e+02	9.79676529e+11
1.83000000e+02	9.96721755e+11
1.84000000e+02	1.01394577e+12
1.85000000e+02	1.03134790e+12
1.86000000e+02	1.04892742e+12
1.87000000e+02	1.06668355e+12
1.88000000e+02	1.08461546e+12
1.89000000e+02	1.10272225e+12
1.90000000e+02	1.12100299e+12
1.91000000e+02	1.13945667e+12
1.92000000e+02	1.15808225e+12
1.93000000e+02	1.17687860e+12
1.94000000e+02	1.19584459e+12
1.95000000e+02	1.21497898e+12
1.96000000e+02	1.23428052e+12
1.97000000e+02	1.25374789e+12
1.98000000e+02	1.27337970e+12
1.99000000e+02	1.29317454e+12
2.00000000e+02	1.31313093e+12
2.01000000e+02	1.33324735e+12
2.02000000e+02	1.35352221e+12
2.03000000e+02	1.37395389e+12
2.04000000e+02	1.39454071e+12
2.05000000e+02	1.41528095e+12
2.06000000e+02	1.43617283e+12
2.07000000e+02	1.45721453e+12
2.08000000e+02	1.47840418e+12
2.09000000e+02	1.49973988e+12
2.10000000e+02	1.52121966e+12
2.11000000e+02	1.54284152e+12
2.12000000e+02	1.56460342e+12
2.13000000e+02	1.58650326e+12
2.14000000e+02	1.60853892e+12
2.15000000e+02	1.63070822e+12
2.16000000e+02	1.65300897e+12
2.17000000e+02	1.67543890e+12
2.18000000e+02	1.69799574e+12
2.19000000e+02	1.72067716e+12
2.20000000e+02	1.74348082e+12
2.21000000e+02	1.76640431e+12
2.22000000e+02	1.78944521e+12
2.23000000e+02	1.81260108e+12
2.24000000e+02	1.83586942e+12
2.25000000e+02	1.85924772e+12
2.26000000e+02	1.88273344e+12
2.27000000e+02	1.90632401e+12
2.28000000e+02	1.93001683e+12
2.29000000e+02	1.95380930e+12
2.30000000e+02	1.97769876e+12
2.31000000e+02	2.00168256e+12
2.32000000e+02	2.02575802e+12
2.33000000e+02	2.04992243e+12
2.34000000e+02	2.07417309e+12
2.35000000e+02	2.09850725e+12
2.36000000e+02	2.12292219e+12
2.37000000e+02	2.14741512e+12
2.38000000e+02	2.17198330e+12
2.39000000e+02	2.19662393e+12
2.40000000e+02	2.22133424e+12
2.41000000e+02	2.24611143e+12
2.42000000e+02	2.27095271e+12
2.43000000e+02	2.29585527e+12
2.44000000e+02	2.32081631e+12
2.45000000e+02	2.34583304e+12
2.46000000e+02	2.37090264e+12
2.47000000e+02	2.39602232e+12
2.48000000e+02	2.42118930e+12
2.49000000e+02	2.44640077e+12
2.50000000e+02	2.47165397e+12
2.51000000e+02	2.49694613e+12
2.52000000e+02	2.52227447e+12
2.53000000e+02	2.54763627e+12
2.54000000e+02	2.57302879e+12
2.55000000e+02	2.59844931e+12
2.56000000e+02	2.62389513e+12
2.57000000e+02	2.64936357e+12
2.58000000e+02	2.67485198e+12
2.59000000e+02	2.70035771e+12
2.60000000e+02	2.72587816e+12
2.61000000e+02	2.75141072e+12
2.62000000e+02	2.77695285e+12
2.63000000e+02	2.80250200e+12
2.64000000e+02	2.82805567e+12
2.65000000e+02	2.85361139e+12
2.66000000e+02	2.87916671e+12
2.67000000e+02	2.90471922e+12
2.68000000e+02	2.93026656e+12
2.69000000e+02	2.95580638e+12
2.70000000e+02	2.98133638e+12
2.71000000e+02	3.00685431e+12
2.72000000e+02	3.03235795e+12
2.73000000e+02	3.05784512e+12
2.74000000e+02	3.08331368e+12
2.75000000e+02	3.10876155e+12
2.76000000e+02	3.13418667e+12
2.77000000e+02	3.15958705e+12
2.78000000e+02	3.18496074e+12
2.79000000e+02	3.21030582e+12
2.80000000e+02	3.23562046e+12
2.81000000e+02	3.26090284e+12
2.82000000e+02	3.28615122e+12
2.83000000e+02	3.31136389e+12
2.84000000e+02	3.33653920e+12
2.85000000e+02	3.36167556e+12
2.86000000e+02	3.38677143e+12
2.87000000e+02	3.41182533e+12
2.88000000e+02	3.43683583e+12
2.89000000e+02	3.46180155e+12
2.90000000e+02	3.48672119e+12
2.91000000e+02	3.51159347e+12
2.92000000e+02	3.53641720e+12
2.93000000e+02	3.56119123e+12
2.94000000e+02	3.58591448e+12
2.95000000e+02	3.61058592e+12
2.96000000e+02	3.63520458e+12
2.97000000e+02	3.65976954e+12
2.98000000e+02	3.68427996e+12
2.99000000e+02	3.70873503e+12
3.00000000e+02	3.73313401e+12
3.01000000e+02	3.75747623e+12
3.02000000e+02	3.78176106e+12
3.03000000e+02	3.80598792e+12
3.04000000e+02	3.83015631e+12
3.05000000e+02	3.85426577e+12
3.06000000e+02	3.87831589e+12
3.07000000e+02	3.90230632e+12
3.08000000e+02	3.92623676e+12
3.09000000e+02	3.95010698e+12
3.10000000e+02	3.97391676e+12
3.11000000e+02	3.99766597e+12
3.12000000e+02	4.02135451e+12
3.13000000e+02	4.04498232e+12
3.14000000e+02	4.06854939e+12
3.15000000e+02	4.09205577e+12
3.16000000e+02	4.11550152e+12
3.17000000e+02	4.13888676e+12
3.18000000e+02	4.16221166e+12
3.19000000e+02	4.18547640e+12
3.20000000e+02	4.20868120e+12
3.21000000e+02	4.23182632e+12
3.22000000e+02	4.25491204e+12
3.23000000e+02	4.27793868e+12
3.24000000e+02	4.30090658e+12
3.25000000e+02	4.32381609e+12
3.26000000e+02	4.34666759e+12
3.27000000e+02	4.36946147e+12
3.28000000e+02	4.39219815e+12
3.29000000e+02	4.41487803e+12
3.30000000e+02	4.43750154e+12
3.31000000e+02	4.46006912e+12
3.32000000e+02	4.48258118e+12
3.33000000e+02	4.50503817e+12
3.34000000e+02	4.52744049e+12
3.35000000e+02	4.54978857e+12
3.36000000e+02	4.57208279e+12
3.37000000e+02	4.59432356e+12
3.38000000e+02	4.61651122e+12
3.39000000e+02	4.63864612e+12
3.40000000e+02	4.66072857e+12
3.41000000e+02	4.68275884e+12
3.42000000e+02	4.70473719e+12
3.43000000e+02	4.72666382e+12
3.44000000e+02	4.74853888e+12
3.45000000e+02	4.77036249e+12
3.46000000e+02	4.79213472e+12
3.47000000e+02	4.81385556e+12
3.48000000e+02	4.83552497e+12
3.49000000e+02	4.85714282e+12
3.50000000e+02	4.87870893e+12
3.51000000e+02	4.90022303e+12
3.52000000e+02	4.92168480e+12
3.53000000e+02	4.94309381e+12
3.54000000e+02	4.96444955e+12
3.55000000e+02	4.98575145e+12
3.56000000e+02	5.00699880e+12
3.57000000e+02	5.02819083e+12
3.58000000e+02	5.04932665e+12
3.59000000e+02	5.07040526e+12
3.60000000e+02	5.09142557e+12
3.61000000e+02	5.11238635e+12
3.62000000e+02	5.13328628e+12
3.63000000e+02	5.15412388e+12
3.64000000e+02	5.17489759e+12
3.65000000e+02	5.19560568e+12
3.66000000e+02	5.21624631e+12
3.67000000e+02	5.23681749e+12
3.68000000e+02	5.25731711e+12
3.69000000e+02	5.27774288e+12
3.70000000e+02	5.29809240e+12
3.71000000e+02	5.31836309e+12
3.72000000e+02	5.33855224e+12
3.73000000e+02	5.35865696e+12
3.74000000e+02	5.37867422e+12
3.75000000e+02	5.39860081e+12
3.76000000e+02	5.41843336e+12
3.77000000e+02	5.43816834e+12
3.78000000e+02	5.45780204e+12
3.79000000e+02	5.47733058e+12
3.80000000e+02	5.49674990e+12
3.81000000e+02	5.51605577e+12
3.82000000e+02	5.53524378e+12
3.83000000e+02	5.55430933e+12
3.84000000e+02	5.57324764e+12
3.85000000e+02	5.59205375e+12
3.86000000e+02	5.61072252e+12
3.87000000e+02	5.62924862e+12
3.88000000e+02	5.64762651e+12
3.89000000e+02	5.66585049e+12
3.90000000e+02	5.68391467e+12
3.91000000e+02	5.70181296e+12
3.92000000e+02	5.71953907e+12
3.93000000e+02	5.73708656e+12
3.94000000e+02	5.75444875e+12
3.95000000e+02	5.77161880e+12
3.96000000e+02	5.78858969e+12
3.97000000e+02	5.80535420e+12
3.98000000e+02	5.82190493e+12
3.99000000e+02	5.83823427e+12
4.00000000e+02	5.85433447e+12
4.01000000e+02	5.87019758e+12
4.02000000e+02	5.88581545e+12
4.03000000e+02	5.90117978e+12
4.04000000e+02	5.91628209e+12
4.05000000e+02	5.93111372e+12
4.06000000e+02	5.94566586e+12
4.07000000e+02	5.95992952e+12
4.08000000e+02	5.97389555e+12
4.09000000e+02	5.98755465e+12
4.10000000e+02	6.00089736e+12
4.11000000e+02	6.01391407e+12
4.12000000e+02	6.02659504e+12
4.13000000e+02	6.03893039e+12
4.14000000e+02	6.05091009e+12
4.15000000e+02	6.06252400e+12
4.16000000e+02	6.07376186e+12
4.17000000e+02	6.08461327e+12
4.18000000e+02	6.09506776e+12
4.19000000e+02	6.10511475e+12
4.20000000e+02	6.11474353e+12
4.21000000e+02	6.12394336e+12
4.22000000e+02	6.13270339e+12
4.23000000e+02	6.14101270e+12
4.24000000e+02	6.14886032e+12
4.25000000e+02	6.15623523e+12
4.26000000e+02	6.16312637e+12
4.27000000e+02	6.16952264e+12
4.28000000e+02	6.17541291e+12
4.29000000e+02	6.18078605e+12
4.30000000e+02	6.18563095e+12
4.31000000e+02	6.18993646e+12
4.32000000e+02	6.19369149e+12
4.33000000e+02	6.19688497e+12
4.34000000e+02	6.19950588e+12
4.35000000e+02	6.20154325e+12
4.36000000e+02	6.20298617e+12
4.37000000e+02	6.20382384e+12
4.38000000e+02	6.20404552e+12
4.39000000e+02	6.20364060e+12
4.40000000e+02	6.20259858e+12
4.41000000e+02	6.20090910e+12
4.42000000e+02	6.19856196e+12
4.43000000e+02	6.19554709e+12
4.44000000e+02	6.19185463e+12
4.45000000e+02	6.18747488e+12
4.46000000e+02	6.18239838e+12
4.47000000e+02	6.17661587e+12
4.48000000e+02	6.17011832e+12
4.49000000e+02	6.16289696e+12
4.50000000e+02	6.15494330e+12
4.51000000e+02	6.14624911e+12
4.52000000e+02	6.13680646e+12
4.53000000e+02	6.12660774e+12
4.54000000e+02	6.11564568e+12
4.55000000e+02	6.10391334e+12
4.56000000e+02	6.09140414e+12
4.57000000e+02	6.07811190e+12
4.58000000e+02	6.06403082e+12
4.59000000e+02	6.04915552e+12
4.60000000e+02	6.03348103e+12
4.61000000e+02	6.01700288e+12
4.62000000e+02	5.99971700e+12
4.63000000e+02	5.98161985e+12
4.64000000e+02	5.96270839e+12
4.65000000e+02	5.94298007e+12
4.66000000e+02	5.92243291e+12
4.67000000e+02	5.90106547e+12
4.68000000e+02	5.87887691e+12
4.69000000e+02	5.85586696e+12
4.70000000e+02	5.83203599e+12
4.71000000e+02	5.80738499e+12
4.72000000e+02	5.78191562e+12
4.73000000e+02	5.75563022e+12
4.74000000e+02	5.72853181e+12
4.75000000e+02	5.70062415e+12
4.76000000e+02	5.67191173e+12
4.77000000e+02	5.64239981e+12
4.78000000e+02	5.61209442e+12
4.79000000e+02	5.58100240e+12
4.80000000e+02	5.54913142e+12
4.81000000e+02	5.51648997e+12
4.82000000e+02	5.48308744e+12
4.83000000e+02	5.44893406e+12
4.84000000e+02	5.41404100e+12
4.85000000e+02	5.37842031e+12
4.86000000e+02	5.34208499e+12
4.87000000e+02	5.30504900e+12
4.88000000e+02	5.26732724e+12
4.89000000e+02	5.22893558e+12
4.90000000e+02	5.18989088e+12
4.91000000e+02	5.15021097e+12
4.92000000e+02	5.10991468e+12
4.93000000e+02	5.06902182e+12
4.94000000e+02	5.02755318e+12
4.95000000e+02	4.98553053e+12
4.96000000e+02	4.94297661e+12
4.97000000e+02	4.89991509e+12
4.98000000e+02	4.85637057e+12
4.99000000e+02	4.81236857e+12
5.00000000e+02	4.76793546e+12
5.01000000e+02	4.72309844e+12
5.02000000e+02	4.67788551e+12
5.03000000e+02	4.63232540e+12
5.04000000e+02	4.58644755e+12
5.05000000e+02	4.54028201e+12
5.06000000e+02	4.49385939e+12
5.07000000e+02	4.44721079e+12
5.08000000e+02	4.40036774e+12
5.09000000e+02	4.35336209e+12
5.10000000e+02	4.30622593e+12
5.11000000e+02	4.25899152e+12
5.12000000e+02	4.21169116e+12
5.13000000e+02	4.16435712e+12
5.14000000e+02	4.11702153e+12
5.15000000e+02	4.06971628e+12
5.16000000e+02	4.02247291e+12
5.17000000e+02	3.97532251e+12
5.18000000e+02	3.92829561e+12
5.19000000e+02	3.88142212e+12
5.20000000e+02	3.83473115e+12
5.21000000e+02	3.78825100e+12
5.22000000e+02	3.74200902e+12
5.23000000e+02	3.69603154e+12
5.24000000e+02	3.65034379e+12
5.25000000e+02	3.60496981e+12
5.26000000e+02	3.55993242e+12
5.27000000e+02	3.51525314e+12
5.28000000e+02	3.47095212e+12
5.29000000e+02	3.42704815e+12
5.30000000e+02	3.38355857e+12
5.31000000e+02	3.34049929e+12
5.32000000e+02	3.29788477e+12
5.33000000e+02	3.25572797e+12
5.34000000e+02	3.21404041e+12
5.35000000e+02	3.17283214e+12
5.36000000e+02	3.13211178e+12
5.37000000e+02	3.09188653e+12
5.38000000e+02	3.05216221e+12
5.39000000e+02	3.01294329e+12
5.40000000e+02	2.97423294e+12
5.41000000e+02	2.93603307e+12
5.42000000e+02	2.89834438e+12
5.43000000e+02	2.86116644e+12
5.44000000e+02	2.82449769e+12
5.45000000e+02	2.78833558e+12
5.46000000e+02	2.75267655e+12
5.47000000e+02	2.71751615e+12
5.48000000e+02	2.68284908e+12
5.49000000e+02	2.64866925e+12
5.50000000e+02	2.61496984e+12
5.51000000e+02	2.58174338e+12
5.52000000e+02	2.54898180e+12
5.53000000e+02	2.51667647e+12
5.54000000e+02	2.48481828e+12
5.55000000e+02	2.45339768e+12
5.56000000e+02	2.42240475e+12
5.57000000e+02	2.39182922e+12
5.58000000e+02	2.36166056e+12
5.59000000e+02	2.33188798e+12
5.60000000e+02	2.30250049e+12
5.61000000e+02	2.27348696e+12
5.62000000e+02	2.24483613e+12
5.63000000e+02	2.21653665e+12
5.64000000e+02	2.18857713e+12
5.65000000e+02	2.16094615e+12
5.66000000e+02	2.13363230e+12
5.67000000e+02	2.10662420e+12
5.68000000e+02	2.07991055e+12
5.69000000e+02	2.05348011e+12
5.70000000e+02	2.02732175e+12
5.71000000e+02	2.00142445e+12
5.72000000e+02	1.97577737e+12
5.73000000e+02	1.95036979e+12
5.74000000e+02	1.92519118e+12
5.75000000e+02	1.90023121e+12
5.76000000e+02	1.87547976e+12
5.77000000e+02	1.85092691e+12
5.78000000e+02	1.82656299e+12
5.79000000e+02	1.80237859e+12
5.80000000e+02	1.77836453e+12
5.81000000e+02	1.75451194e+12
5.82000000e+02	1.73081221e+12
5.83000000e+02	1.70725705e+12
5.84000000e+02	1.68383846e+12
5.85000000e+02	1.66054877e+12
5.86000000e+02	1.63738066e+12
5.87000000e+02	1.61432714e+12
5.88000000e+02	1.59138157e+12
5.89000000e+02	1.56853771e+12
5.90000000e+02	1.54578968e+12
5.91000000e+02	1.52313200e+12
5.92000000e+02	1.50055961e+12
5.93000000e+02	1.47806787e+12
5.94000000e+02	1.45565255e+12
5.95000000e+02	1.43330987e+12
5.96000000e+02	1.41103649e+12
5.97000000e+02	1.38882950e+12
5.98000000e+02	1.36668652e+12
5.99000000e+02	1.34460560e+12
6.00000000e+02	1.32258530e+12
6.01000000e+02	1.30062464e+12
6.02000000e+02	1.27872311e+12
6.03000000e+02	1.25688072e+12
6.04000000e+02	1.23509799e+12
6.05000000e+02	1.21337593e+12
6.06000000e+02	1.19171594e+12
6.07000000e+02	1.17012003e+12
6.08000000e+02	1.14859073e+12
6.09000000e+02	1.12713078e+12
6.10000000e+02	1.10574356e+12
6.11000000e+02	1.08443322e+12
6.12000000e+02	1.06320366e+12
6.13000000e+02	1.04205954e+12
6.14000000e+02	1.02100592e+12
6.15000000e+02	1.00004824e+12
6.16000000e+02	9.79192573e+11
6.17000000e+02	9.58444971e+11
6.18000000e+02	9.37811412e+11
6.19000000e+02	9.17299246e+11
6.20000000e+02	8.96915100e+11
6.21000000e+02	8.76665897e+11
6.22000000e+02	8.56559656e+11
6.23000000e+02	8.36603042e+11
6.24000000e+02	8.16804321e+11
6.25000000e+02	7.97170921e+11
6.26000000e+02	7.77710367e+11
6.27000000e+02	7.58430948e+11
6.28000000e+02	7.39339626e+11
6.29000000e+02	7.20444800e+11
6.30000000e+02	7.01753408e+11
6.31000000e+02	6.83273171e+11
6.32000000e+02	6.65011376e+11
6.33000000e+02	6.46974784e+11
6.34000000e+02	6.29170689e+11
6.35000000e+02	6.11605103e+11
6.36000000e+02	5.94284899e+11
6.37000000e+02	5.77215506e+11
6.38000000e+02	5.60402979e+11
6.39000000e+02	5.43852396e+11
6.40000000e+02	5.27568713e+11
6.41000000e+02	5.11556578e+11
6.42000000e+02	4.95819901e+11
6.43000000e+02	4.80362671e+11
6.44000000e+02	4.65187813e+11
6.45000000e+02	4.50298551e+11
6.46000000e+02	4.35696923e+11
6.47000000e+02	4.21385223e+11
6.48000000e+02	4.07364657e+11
6.49000000e+02	3.93636517e+11
6.50000000e+02	3.80201247e+11
6.51000000e+02	3.67059150e+11
6.52000000e+02	3.54209896e+11
6.53000000e+02	3.41652823e+11
6.54000000e+02	3.29386820e+11
6.55000000e+02	3.17410352e+11
6.56000000e+02	3.05721566e+11
6.57000000e+02	2.94318098e+11
6.58000000e+02	2.83197340e+11
6.59000000e+02	2.72356187e+11
