# Profil de FluxX au temps 4.000000000000029e-12 
# simu : /Volumes/MERCURE/JOBS/Zeq1_tanh_50mic_1p5e20_B0_20ps/GNU/FluxX@y-c.set
# col 0 : abscisse (um)
# col 1 : FluxX (W/cm2)
0.00000000e+00	0.00000000e+00
1.00000000e+00	1.03719026e+06
2.00000000e+00	1.89208522e+06
3.00000000e+00	3.23256853e+06
4.00000000e+00	4.21799232e+06
5.00000000e+00	5.18132616e+06
6.00000000e+00	6.15247867e+06
7.00000000e+00	7.13133688e+06
8.00000000e+00	8.11469236e+06
9.00000000e+00	9.10814042e+06
1.00000000e+01	1.01172297e+07
1.10000000e+01	1.11442295e+07
1.20000000e+01	1.21900735e+07
1.30000000e+01	1.32557758e+07
1.40000000e+01	1.43426765e+07
1.50000000e+01	1.54523420e+07
1.60000000e+01	1.65864597e+07
1.70000000e+01	1.77467971e+07
1.80000000e+01	1.89351814e+07
1.90000000e+01	2.01535007e+07
2.00000000e+01	2.14036946e+07
2.10000000e+01	2.26877621e+07
2.20000000e+01	2.40077574e+07
2.30000000e+01	2.53657980e+07
2.40000000e+01	2.67640601e+07
2.50000000e+01	2.82047913e+07
2.60000000e+01	2.96903033e+07
2.70000000e+01	3.12229792e+07
2.80000000e+01	3.28052783e+07
2.90000000e+01	3.44397387e+07
3.00000000e+01	3.61289786e+07
3.10000000e+01	3.78757056e+07
3.20000000e+01	3.96827166e+07
3.30000000e+01	4.15529020e+07
3.40000000e+01	4.34892499e+07
3.50000000e+01	4.54948574e+07
3.60000000e+01	4.75729275e+07
3.70000000e+01	4.97267776e+07
3.80000000e+01	5.19598513e+07
3.90000000e+01	5.42757139e+07
4.00000000e+01	5.66780672e+07
4.10000000e+01	5.91707520e+07
4.20000000e+01	6.17577580e+07
4.30000000e+01	6.44432259e+07
4.40000000e+01	6.72314613e+07
4.50000000e+01	7.01269334e+07
4.60000000e+01	7.31342873e+07
4.70000000e+01	7.62583488e+07
4.80000000e+01	7.95041318e+07
4.90000000e+01	8.28768456e+07
5.00000000e+01	8.63819044e+07
5.10000000e+01	9.00249294e+07
5.20000000e+01	9.38117623e+07
5.30000000e+01	9.77484735e+07
5.40000000e+01	1.01841368e+08
5.50000000e+01	1.06097001e+08
5.60000000e+01	1.10522182e+08
5.70000000e+01	1.15123987e+08
5.80000000e+01	1.19909776e+08
5.90000000e+01	1.24887196e+08
6.00000000e+01	1.30064203e+08
6.10000000e+01	1.35449069e+08
6.20000000e+01	1.41050395e+08
6.30000000e+01	1.46877136e+08
6.40000000e+01	1.52938600e+08
6.50000000e+01	1.59244477e+08
6.60000000e+01	1.65804853e+08
6.70000000e+01	1.72630221e+08
6.80000000e+01	1.79731503e+08
6.90000000e+01	1.87120069e+08
7.00000000e+01	1.94807757e+08
7.10000000e+01	2.02806886e+08
7.20000000e+01	2.11130284e+08
7.30000000e+01	2.19791302e+08
7.40000000e+01	2.28803833e+08
7.50000000e+01	2.38182340e+08
7.60000000e+01	2.47941871e+08
7.70000000e+01	2.58098079e+08
7.80000000e+01	2.68667250e+08
7.90000000e+01	2.79666321e+08
8.00000000e+01	2.91112907e+08
8.10000000e+01	3.03025326e+08
8.20000000e+01	3.15422627e+08
8.30000000e+01	3.28324621e+08
8.40000000e+01	3.41751910e+08
8.50000000e+01	3.55725919e+08
8.60000000e+01	3.70268940e+08
8.70000000e+01	3.85404163e+08
8.80000000e+01	4.01155716e+08
8.90000000e+01	4.17548706e+08
9.00000000e+01	4.34609265e+08
9.10000000e+01	4.52364589e+08
9.20000000e+01	4.70842990e+08
9.30000000e+01	4.90073931e+08
9.40000000e+01	5.10088085e+08
9.50000000e+01	5.30917380e+08
9.60000000e+01	5.52595044e+08
9.70000000e+01	5.75155668e+08
9.80000000e+01	5.98635249e+08
9.90000000e+01	6.23071257e+08
1.00000000e+02	6.48502681e+08
1.01000000e+02	6.74970103e+08
1.02000000e+02	7.02515751e+08
1.03000000e+02	7.31183573e+08
1.04000000e+02	7.61019301e+08
1.05000000e+02	7.92070526e+08
1.06000000e+02	8.24386768e+08
1.07000000e+02	8.58019560e+08
1.08000000e+02	8.93022527e+08
1.09000000e+02	9.29451466e+08
1.10000000e+02	9.67364440e+08
1.11000000e+02	1.00682187e+09
1.12000000e+02	1.04788662e+09
1.13000000e+02	1.09062411e+09
1.14000000e+02	1.13510241e+09
1.15000000e+02	1.18139234e+09
1.16000000e+02	1.22956760e+09
1.17000000e+02	1.27970488e+09
1.18000000e+02	1.33188395e+09
1.19000000e+02	1.38618785e+09
1.20000000e+02	1.44270294e+09
1.21000000e+02	1.50151909e+09
1.22000000e+02	1.56272982e+09
1.23000000e+02	1.62643241e+09
1.24000000e+02	1.69272808e+09
1.25000000e+02	1.76172215e+09
1.26000000e+02	1.83352416e+09
1.27000000e+02	1.90824812e+09
1.28000000e+02	1.98601260e+09
1.29000000e+02	2.06694098e+09
1.30000000e+02	2.15116160e+09
1.31000000e+02	2.23880797e+09
1.32000000e+02	2.33001900e+09
1.33000000e+02	2.42493916e+09
1.34000000e+02	2.52371876e+09
1.35000000e+02	2.62651415e+09
1.36000000e+02	2.73348794e+09
1.37000000e+02	2.84480932e+09
1.38000000e+02	2.96065422e+09
1.39000000e+02	3.08120567e+09
1.40000000e+02	3.20665401e+09
1.41000000e+02	3.33719723e+09
1.42000000e+02	3.47304121e+09
1.43000000e+02	3.61440011e+09
1.44000000e+02	3.76149661e+09
1.45000000e+02	3.91456232e+09
1.46000000e+02	4.07383807e+09
1.47000000e+02	4.23957430e+09
1.48000000e+02	4.41203141e+09
1.49000000e+02	4.59148018e+09
1.50000000e+02	4.77820216e+09
1.51000000e+02	4.97249007e+09
1.52000000e+02	5.17464824e+09
1.53000000e+02	5.38499306e+09
1.54000000e+02	5.60385347e+09
1.55000000e+02	5.83157137e+09
1.56000000e+02	6.06850220e+09
1.57000000e+02	6.31501540e+09
1.58000000e+02	6.57149496e+09
1.59000000e+02	6.83833997e+09
1.60000000e+02	7.11596521e+09
1.61000000e+02	7.40480170e+09
1.62000000e+02	7.70529736e+09
1.63000000e+02	8.01791761e+09
1.64000000e+02	8.34314603e+09
1.65000000e+02	8.68148504e+09
1.66000000e+02	9.03345663e+09
1.67000000e+02	9.39960300e+09
1.68000000e+02	9.78048740e+09
1.69000000e+02	1.01766948e+10
1.70000000e+02	1.05888329e+10
1.71000000e+02	1.10175326e+10
1.72000000e+02	1.14634492e+10
1.73000000e+02	1.19272630e+10
1.74000000e+02	1.24096804e+10
1.75000000e+02	1.29114347e+10
1.76000000e+02	1.34332872e+10
1.77000000e+02	1.39760280e+10
1.78000000e+02	1.45404771e+10
1.79000000e+02	1.51274856e+10
1.80000000e+02	1.57379364e+10
1.81000000e+02	1.63727458e+10
1.82000000e+02	1.70328642e+10
1.83000000e+02	1.77192775e+10
1.84000000e+02	1.84330083e+10
1.85000000e+02	1.91751171e+10
1.86000000e+02	1.99467033e+10
1.87000000e+02	2.07489071e+10
1.88000000e+02	2.15829103e+10
1.89000000e+02	2.24499379e+10
1.90000000e+02	2.33512594e+10
1.91000000e+02	2.42881902e+10
1.92000000e+02	2.52620933e+10
1.93000000e+02	2.62743807e+10
1.94000000e+02	2.73265145e+10
1.95000000e+02	2.84200092e+10
1.96000000e+02	2.95564327e+10
1.97000000e+02	3.07374084e+10
1.98000000e+02	3.19646161e+10
1.99000000e+02	3.32397948e+10
2.00000000e+02	3.45647435e+10
2.01000000e+02	3.59413230e+10
2.02000000e+02	3.73714585e+10
2.03000000e+02	3.88571402e+10
2.04000000e+02	4.04004263e+10
2.05000000e+02	4.20034439e+10
2.06000000e+02	4.36683914e+10
2.07000000e+02	4.53975402e+10
2.08000000e+02	4.71932368e+10
2.09000000e+02	4.90579045e+10
2.10000000e+02	5.09940454e+10
2.11000000e+02	5.30042424e+10
2.12000000e+02	5.50911612e+10
2.13000000e+02	5.72575522e+10
2.14000000e+02	5.95062524e+10
2.15000000e+02	6.18401877e+10
2.16000000e+02	6.42623745e+10
2.17000000e+02	6.67759217e+10
2.18000000e+02	6.93840330e+10
2.19000000e+02	7.20900085e+10
2.20000000e+02	7.48972468e+10
2.21000000e+02	7.78092468e+10
2.22000000e+02	8.08296096e+10
2.23000000e+02	8.39620404e+10
2.24000000e+02	8.72103504e+10
2.25000000e+02	9.05784583e+10
2.26000000e+02	9.40703921e+10
2.27000000e+02	9.76902909e+10
2.28000000e+02	1.01442406e+11
2.29000000e+02	1.05331105e+11
2.30000000e+02	1.09360867e+11
2.31000000e+02	1.13536291e+11
2.32000000e+02	1.17862095e+11
2.33000000e+02	1.22343114e+11
2.34000000e+02	1.26984306e+11
2.35000000e+02	1.31790747e+11
2.36000000e+02	1.36767639e+11
2.37000000e+02	1.41920306e+11
2.38000000e+02	1.47254194e+11
2.39000000e+02	1.52774876e+11
2.40000000e+02	1.58488048e+11
2.41000000e+02	1.64399530e+11
2.42000000e+02	1.70515267e+11
2.43000000e+02	1.76841329e+11
2.44000000e+02	1.83383909e+11
2.45000000e+02	1.90149325e+11
2.46000000e+02	1.97144016e+11
2.47000000e+02	2.04374543e+11
2.48000000e+02	2.11847588e+11
2.49000000e+02	2.19569951e+11
2.50000000e+02	2.27548550e+11
2.51000000e+02	2.35790418e+11
2.52000000e+02	2.44302700e+11
2.53000000e+02	2.53092654e+11
2.54000000e+02	2.62167644e+11
2.55000000e+02	2.71535140e+11
2.56000000e+02	2.81202712e+11
2.57000000e+02	2.91178031e+11
2.58000000e+02	3.01468861e+11
2.59000000e+02	3.12083053e+11
2.60000000e+02	3.23028549e+11
2.61000000e+02	3.34313368e+11
2.62000000e+02	3.45945606e+11
2.63000000e+02	3.57933429e+11
2.64000000e+02	3.70285068e+11
2.65000000e+02	3.83008812e+11
2.66000000e+02	3.96113004e+11
2.67000000e+02	4.09606029e+11
2.68000000e+02	4.23496315e+11
2.69000000e+02	4.37792317e+11
2.70000000e+02	4.52502516e+11
2.71000000e+02	4.67635407e+11
2.72000000e+02	4.83199493e+11
2.73000000e+02	4.99203276e+11
2.74000000e+02	5.15655246e+11
2.75000000e+02	5.32563874e+11
2.76000000e+02	5.49937603e+11
2.77000000e+02	5.67784836e+11
2.78000000e+02	5.86113927e+11
2.79000000e+02	6.04933170e+11
2.80000000e+02	6.24250789e+11
2.81000000e+02	6.44074928e+11
2.82000000e+02	6.64413638e+11
2.83000000e+02	6.85274867e+11
2.84000000e+02	7.06666448e+11
2.85000000e+02	7.28596086e+11
2.86000000e+02	7.51071349e+11
2.87000000e+02	7.74099653e+11
2.88000000e+02	7.97688251e+11
2.89000000e+02	8.21844221e+11
2.90000000e+02	8.46574454e+11
2.91000000e+02	8.71885638e+11
2.92000000e+02	8.97784249e+11
2.93000000e+02	9.24276540e+11
2.94000000e+02	9.51368521e+11
2.95000000e+02	9.79065954e+11
2.96000000e+02	1.00737434e+12
2.97000000e+02	1.03629889e+12
2.98000000e+02	1.06584454e+12
2.99000000e+02	1.09601592e+12
3.00000000e+02	1.12681735e+12
3.01000000e+02	1.15825282e+12
3.02000000e+02	1.19032597e+12
3.03000000e+02	1.22304012e+12
3.04000000e+02	1.25639819e+12
3.05000000e+02	1.29040277e+12
3.06000000e+02	1.32505602e+12
3.07000000e+02	1.36035974e+12
3.08000000e+02	1.39631531e+12
3.09000000e+02	1.43292369e+12
3.10000000e+02	1.47018543e+12
3.11000000e+02	1.50810063e+12
3.12000000e+02	1.54666896e+12
3.13000000e+02	1.58588961e+12
3.14000000e+02	1.62576135e+12
3.15000000e+02	1.66628244e+12
3.16000000e+02	1.70745068e+12
3.17000000e+02	1.74926341e+12
3.18000000e+02	1.79171744e+12
3.19000000e+02	1.83480913e+12
3.20000000e+02	1.87853429e+12
3.21000000e+02	1.92288827e+12
3.22000000e+02	1.96786589e+12
3.23000000e+02	2.01346146e+12
3.24000000e+02	2.05966878e+12
3.25000000e+02	2.10648113e+12
3.26000000e+02	2.15389129e+12
3.27000000e+02	2.20189148e+12
3.28000000e+02	2.25047344e+12
3.29000000e+02	2.29962837e+12
3.30000000e+02	2.34934697e+12
3.31000000e+02	2.39961941e+12
3.32000000e+02	2.45043534e+12
3.33000000e+02	2.50178392e+12
3.34000000e+02	2.55365378e+12
3.35000000e+02	2.60603306e+12
3.36000000e+02	2.65890941e+12
3.37000000e+02	2.71226996e+12
3.38000000e+02	2.76610138e+12
3.39000000e+02	2.82038984e+12
3.40000000e+02	2.87512105e+12
3.41000000e+02	2.93028025e+12
3.42000000e+02	2.98585222e+12
3.43000000e+02	3.04182130e+12
3.44000000e+02	3.09817137e+12
3.45000000e+02	3.15488591e+12
3.46000000e+02	3.21194796e+12
3.47000000e+02	3.26934016e+12
3.48000000e+02	3.32704475e+12
3.49000000e+02	3.38504360e+12
3.50000000e+02	3.44331817e+12
3.51000000e+02	3.50184960e+12
3.52000000e+02	3.56061866e+12
3.53000000e+02	3.61960579e+12
3.54000000e+02	3.67879112e+12
3.55000000e+02	3.73815445e+12
3.56000000e+02	3.79767530e+12
3.57000000e+02	3.85733291e+12
3.58000000e+02	3.91710626e+12
3.59000000e+02	3.97697406e+12
3.60000000e+02	4.03691481e+12
3.61000000e+02	4.09690677e+12
3.62000000e+02	4.15692800e+12
3.63000000e+02	4.21695636e+12
3.64000000e+02	4.27696955e+12
3.65000000e+02	4.33694510e+12
3.66000000e+02	4.39686038e+12
3.67000000e+02	4.45669263e+12
3.68000000e+02	4.51641900e+12
3.69000000e+02	4.57601650e+12
3.70000000e+02	4.63546206e+12
3.71000000e+02	4.69473256e+12
3.72000000e+02	4.75380477e+12
3.73000000e+02	4.81265546e+12
3.74000000e+02	4.87126133e+12
3.75000000e+02	4.92959907e+12
3.76000000e+02	4.98764536e+12
3.77000000e+02	5.04537689e+12
3.78000000e+02	5.10277034e+12
3.79000000e+02	5.15980245e+12
3.80000000e+02	5.21644995e+12
3.81000000e+02	5.27268966e+12
3.82000000e+02	5.32849843e+12
3.83000000e+02	5.38385317e+12
3.84000000e+02	5.43873090e+12
3.85000000e+02	5.49310867e+12
3.86000000e+02	5.54696367e+12
3.87000000e+02	5.60027314e+12
3.88000000e+02	5.65301445e+12
3.89000000e+02	5.70516507e+12
3.90000000e+02	5.75670258e+12
3.91000000e+02	5.80760468e+12
3.92000000e+02	5.85784919e+12
3.93000000e+02	5.90741404e+12
3.94000000e+02	5.95627731e+12
3.95000000e+02	6.00441718e+12
3.96000000e+02	6.05181198e+12
3.97000000e+02	6.09844013e+12
3.98000000e+02	6.14428021e+12
3.99000000e+02	6.18931092e+12
4.00000000e+02	6.23351106e+12
4.01000000e+02	6.27685957e+12
4.02000000e+02	6.31933550e+12
4.03000000e+02	6.36091800e+12
4.04000000e+02	6.40158635e+12
4.05000000e+02	6.44131990e+12
4.06000000e+02	6.48009813e+12
4.07000000e+02	6.51790059e+12
4.08000000e+02	6.55470692e+12
4.09000000e+02	6.59049683e+12
4.10000000e+02	6.62525012e+12
4.11000000e+02	6.65894664e+12
4.12000000e+02	6.69156630e+12
4.13000000e+02	6.72308906e+12
4.14000000e+02	6.75349492e+12
4.15000000e+02	6.78276394e+12
4.16000000e+02	6.81087618e+12
4.17000000e+02	6.83781175e+12
4.18000000e+02	6.86355077e+12
4.19000000e+02	6.88807339e+12
4.20000000e+02	6.91135976e+12
4.21000000e+02	6.93339004e+12
4.22000000e+02	6.95414443e+12
4.23000000e+02	6.97360311e+12
4.24000000e+02	6.99174628e+12
4.25000000e+02	7.00855417e+12
4.26000000e+02	7.02400701e+12
4.27000000e+02	7.03808508e+12
4.28000000e+02	7.05076866e+12
4.29000000e+02	7.06203812e+12
4.30000000e+02	7.07187386e+12
4.31000000e+02	7.08025636e+12
4.32000000e+02	7.08716619e+12
4.33000000e+02	7.09258403e+12
4.34000000e+02	7.09649070e+12
4.35000000e+02	7.09886718e+12
4.36000000e+02	7.09969461e+12
4.37000000e+02	7.09895437e+12
4.38000000e+02	7.09662808e+12
4.39000000e+02	7.09269766e+12
4.40000000e+02	7.08714534e+12
4.41000000e+02	7.07995371e+12
4.42000000e+02	7.07110579e+12
4.43000000e+02	7.06058504e+12
4.44000000e+02	7.04837545e+12
4.45000000e+02	7.03446154e+12
4.46000000e+02	7.01882847e+12
4.47000000e+02	7.00146208e+12
4.48000000e+02	6.98234893e+12
4.49000000e+02	6.96147639e+12
4.50000000e+02	6.93883269e+12
4.51000000e+02	6.91440698e+12
4.52000000e+02	6.88818942e+12
4.53000000e+02	6.86017126e+12
4.54000000e+02	6.83034485e+12
4.55000000e+02	6.79870380e+12
4.56000000e+02	6.76524297e+12
4.57000000e+02	6.72995861e+12
4.58000000e+02	6.69284840e+12
4.59000000e+02	6.65391155e+12
4.60000000e+02	6.61314884e+12
4.61000000e+02	6.57056272e+12
4.62000000e+02	6.52615739e+12
4.63000000e+02	6.47993885e+12
4.64000000e+02	6.43191499e+12
4.65000000e+02	6.38209562e+12
4.66000000e+02	6.33049261e+12
4.67000000e+02	6.27711987e+12
4.68000000e+02	6.22199345e+12
4.69000000e+02	6.16513159e+12
4.70000000e+02	6.10655477e+12
4.71000000e+02	6.04628573e+12
4.72000000e+02	5.98434954e+12
4.73000000e+02	5.92077358e+12
4.74000000e+02	5.85558762e+12
4.75000000e+02	5.78882380e+12
4.76000000e+02	5.72051661e+12
4.77000000e+02	5.65070294e+12
4.78000000e+02	5.57942201e+12
4.79000000e+02	5.50671538e+12
4.80000000e+02	5.43262688e+12
4.81000000e+02	5.35720258e+12
4.82000000e+02	5.28049072e+12
4.83000000e+02	5.20254166e+12
4.84000000e+02	5.12340775e+12
4.85000000e+02	5.04314326e+12
4.86000000e+02	4.96180429e+12
4.87000000e+02	4.87944861e+12
4.88000000e+02	4.79613559e+12
4.89000000e+02	4.71192600e+12
4.90000000e+02	4.62688194e+12
4.91000000e+02	4.54106663e+12
4.92000000e+02	4.45454430e+12
4.93000000e+02	4.36738005e+12
4.94000000e+02	4.27963964e+12
4.95000000e+02	4.19138941e+12
4.96000000e+02	4.10269609e+12
4.97000000e+02	4.01362668e+12
4.98000000e+02	3.92424829e+12
4.99000000e+02	3.83462807e+12
5.00000000e+02	3.74483305e+12
5.01000000e+02	3.65493006e+12
5.02000000e+02	3.56498564e+12
5.03000000e+02	3.47506596e+12
5.04000000e+02	3.38523678e+12
5.05000000e+02	3.29556340e+12
5.06000000e+02	3.20611062e+12
5.07000000e+02	3.11694274e+12
5.08000000e+02	3.02812354e+12
5.09000000e+02	2.93971633e+12
5.10000000e+02	2.85178390e+12
5.11000000e+02	2.76438864e+12
5.12000000e+02	2.67759248e+12
5.13000000e+02	2.59145700e+12
5.14000000e+02	2.50604343e+12
5.15000000e+02	2.42141269e+12
5.16000000e+02	2.33762543e+12
5.17000000e+02	2.25474205e+12
5.18000000e+02	2.17282270e+12
5.19000000e+02	2.09192726e+12
5.20000000e+02	2.01211536e+12
5.21000000e+02	1.93344630e+12
5.22000000e+02	1.85597898e+12
5.23000000e+02	1.77977184e+12
5.24000000e+02	1.70488270e+12
5.25000000e+02	1.63136864e+12
5.26000000e+02	1.55928582e+12
5.27000000e+02	1.48868924e+12
5.28000000e+02	1.41963254e+12
5.29000000e+02	1.35216774e+12
5.30000000e+02	1.28634492e+12
5.31000000e+02	1.22221191e+12
5.32000000e+02	1.15981400e+12
5.33000000e+02	1.09919354e+12
5.34000000e+02	1.04038962e+12
5.35000000e+02	9.83437691e+11
5.36000000e+02	9.28369215e+11
5.37000000e+02	8.75211318e+11
5.38000000e+02	8.23986455e+11
5.39000000e+02	7.74712103e+11
5.40000000e+02	7.27400488e+11
5.41000000e+02	6.82058346e+11
5.42000000e+02	6.38686734e+11
5.43000000e+02	5.97280890e+11
5.44000000e+02	5.57830155e+11
5.45000000e+02	5.20317947e+11
5.46000000e+02	4.84721813e+11
5.47000000e+02	4.51013536e+11
5.48000000e+02	4.19159313e+11
5.49000000e+02	3.89119998e+11
5.50000000e+02	3.60851406e+11
5.51000000e+02	3.34304675e+11
5.52000000e+02	3.09426679e+11
5.53000000e+02	2.86160488e+11
5.54000000e+02	2.64445860e+11
5.55000000e+02	2.44219765e+11
5.56000000e+02	2.25416925e+11
5.57000000e+02	2.07970363e+11
5.58000000e+02	1.91811953e+11
5.59000000e+02	1.76872956e+11
5.60000000e+02	1.63084543e+11
5.61000000e+02	1.50378286e+11
5.62000000e+02	1.38686620e+11
5.63000000e+02	1.27943265e+11
5.64000000e+02	1.18083604e+11
5.65000000e+02	1.09045015e+11
5.66000000e+02	1.00767157e+11
5.67000000e+02	9.31922010e+10
5.68000000e+02	8.62650209e+10
5.69000000e+02	7.99333292e+10
5.70000000e+02	7.41477730e+10
5.71000000e+02	6.88619852e+10
5.72000000e+02	6.40325984e+10
5.73000000e+02	5.96192242e+10
5.74000000e+02	5.55844019e+10
5.75000000e+02	5.18935215e+10
5.76000000e+02	4.85147247e+10
5.77000000e+02	4.54187891e+10
5.78000000e+02	4.25789978e+10
5.79000000e+02	3.99710008e+10
5.80000000e+02	3.75726683e+10
5.81000000e+02	3.53639426e+10
5.82000000e+02	3.33266873e+10
5.83000000e+02	3.14445400e+10
5.84000000e+02	2.97027673e+10
5.85000000e+02	2.80881251e+10
5.86000000e+02	2.65887255e+10
5.87000000e+02	2.51939104e+10
5.88000000e+02	2.38941330e+10
5.89000000e+02	2.26808472e+10
5.90000000e+02	2.15464059e+10
5.91000000e+02	2.04839662e+10
5.92000000e+02	1.94874044e+10
5.93000000e+02	1.85512371e+10
5.94000000e+02	1.76705510e+10
5.95000000e+02	1.68409390e+10
5.96000000e+02	1.60584433e+10
5.97000000e+02	1.53195043e+10
5.98000000e+02	1.46209147e+10
5.99000000e+02	1.39597801e+10
6.00000000e+02	1.33334823e+10
6.01000000e+02	1.27396484e+10
6.02000000e+02	1.21761226e+10
6.03000000e+02	1.16409421e+10
6.04000000e+02	1.11323151e+10
6.05000000e+02	1.06486024e+10
6.06000000e+02	1.01883002e+10
6.07000000e+02	9.75002643e+09
6.08000000e+02	9.33250712e+09
6.09000000e+02	8.93456577e+09
6.10000000e+02	8.55511329e+09
6.11000000e+02	8.19313942e+09
6.12000000e+02	7.84770513e+09
6.13000000e+02	7.51793590e+09
6.14000000e+02	7.20301582e+09
6.15000000e+02	6.90218234e+09
6.16000000e+02	6.61472166e+09
6.17000000e+02	6.33996457e+09
6.18000000e+02	6.07728278e+09
6.19000000e+02	5.82608568e+09
6.20000000e+02	5.58581734e+09
6.21000000e+02	5.35595391e+09
6.22000000e+02	5.13600123e+09
6.23000000e+02	4.92549268e+09
6.24000000e+02	4.72398725e+09
6.25000000e+02	4.53106773e+09
6.26000000e+02	4.34633916e+09
6.27000000e+02	4.16942731e+09
6.28000000e+02	3.99997737e+09
6.29000000e+02	3.83765269e+09
6.30000000e+02	3.68213365e+09
6.31000000e+02	3.53311661e+09
6.32000000e+02	3.39031292e+09
6.33000000e+02	3.25344806e+09
6.34000000e+02	3.12226073e+09
6.35000000e+02	2.99650210e+09
6.36000000e+02	2.87593509e+09
6.37000000e+02	2.76033363e+09
6.38000000e+02	2.64948204e+09
6.39000000e+02	2.54317442e+09
6.40000000e+02	2.44121405e+09
6.41000000e+02	2.34341287e+09
6.42000000e+02	2.24959099e+09
6.43000000e+02	2.15957619e+09
6.44000000e+02	2.07320352e+09
6.45000000e+02	1.99031492e+09
6.46000000e+02	1.91075887e+09
6.47000000e+02	1.83439010e+09
6.48000000e+02	1.76106934e+09
6.49000000e+02	1.69066312e+09
6.50000000e+02	1.62304357e+09
6.51000000e+02	1.55808831e+09
6.52000000e+02	1.49568033e+09
6.53000000e+02	1.43570783e+09
6.54000000e+02	1.37806412e+09
6.55000000e+02	1.32264748e+09
6.56000000e+02	1.26936095e+09
6.57000000e+02	1.21811208e+09
6.58000000e+02	1.16881271e+09
6.59000000e+02	1.12137862e+09
