# Profil de FluxX au temps 7.000000000000077e-12 
# simu : /Volumes/MERCURE/JOBS/Zeq1_tanh_50mic_1p5e20_B0_20ps/GNU/FluxX@y-c.set
# col 0 : abscisse (um)
# col 1 : FluxX (W/cm2)
0.00000000e+00	0.00000000e+00
1.00000000e+00	3.62659858e+07
2.00000000e+00	7.23982124e+07
3.00000000e+00	1.09116595e+08
4.00000000e+00	1.45668587e+08
5.00000000e+00	1.82426645e+08
6.00000000e+00	2.19464334e+08
7.00000000e+00	2.56844671e+08
8.00000000e+00	2.94627665e+08
9.00000000e+00	3.32872794e+08
1.00000000e+01	3.71640005e+08
1.10000000e+01	4.10989997e+08
1.20000000e+01	4.50984327e+08
1.30000000e+01	4.91685514e+08
1.40000000e+01	5.33157155e+08
1.50000000e+01	5.75464025e+08
1.60000000e+01	6.18672171e+08
1.70000000e+01	6.62848971e+08
1.80000000e+01	7.08063203e+08
1.90000000e+01	7.54385137e+08
2.00000000e+01	8.01886647e+08
2.10000000e+01	8.50641320e+08
2.20000000e+01	9.00724574e+08
2.30000000e+01	9.52213735e+08
2.40000000e+01	1.00518815e+09
2.50000000e+01	1.05972929e+09
2.60000000e+01	1.11592088e+09
2.70000000e+01	1.17384906e+09
2.80000000e+01	1.23360248e+09
2.90000000e+01	1.29527250e+09
3.00000000e+01	1.35895320e+09
3.10000000e+01	1.42474161e+09
3.20000000e+01	1.49273775e+09
3.30000000e+01	1.56304479e+09
3.40000000e+01	1.63576917e+09
3.50000000e+01	1.71102074e+09
3.60000000e+01	1.78891291e+09
3.70000000e+01	1.86956278e+09
3.80000000e+01	1.95309129e+09
3.90000000e+01	2.03962342e+09
4.00000000e+01	2.12928829e+09
4.10000000e+01	2.22221934e+09
4.20000000e+01	2.31855454e+09
4.30000000e+01	2.41843647e+09
4.40000000e+01	2.52201261e+09
4.50000000e+01	2.62943539e+09
4.60000000e+01	2.74086249e+09
4.70000000e+01	2.85645695e+09
4.80000000e+01	2.97638738e+09
4.90000000e+01	3.10082818e+09
5.00000000e+01	3.22995971e+09
5.10000000e+01	3.36396850e+09
5.20000000e+01	3.50304750e+09
5.30000000e+01	3.64739625e+09
5.40000000e+01	3.79722113e+09
5.50000000e+01	3.95273556e+09
5.60000000e+01	4.11416029e+09
5.70000000e+01	4.28172358e+09
5.80000000e+01	4.45566146e+09
5.90000000e+01	4.63621802e+09
6.00000000e+01	4.82364560e+09
6.10000000e+01	5.01820511e+09
6.20000000e+01	5.22016629e+09
6.30000000e+01	5.42980795e+09
6.40000000e+01	5.64741827e+09
6.50000000e+01	5.87329512e+09
6.60000000e+01	6.10774631e+09
6.70000000e+01	6.35108990e+09
6.80000000e+01	6.60365453e+09
6.90000000e+01	6.86577970e+09
7.00000000e+01	7.13781613e+09
7.10000000e+01	7.42012605e+09
7.20000000e+01	7.71308356e+09
7.30000000e+01	8.01707494e+09
7.40000000e+01	8.33249906e+09
7.50000000e+01	8.65976767e+09
7.60000000e+01	8.99930578e+09
7.70000000e+01	9.35155205e+09
7.80000000e+01	9.71695916e+09
7.90000000e+01	1.00959941e+10
8.00000000e+01	1.04891389e+10
8.10000000e+01	1.08968904e+10
8.20000000e+01	1.13197612e+10
8.30000000e+01	1.17582800e+10
8.40000000e+01	1.22129917e+10
8.50000000e+01	1.26844583e+10
8.60000000e+01	1.31732586e+10
8.70000000e+01	1.36799896e+10
8.80000000e+01	1.42052661e+10
8.90000000e+01	1.47497215e+10
9.00000000e+01	1.53140084e+10
9.10000000e+01	1.58987986e+10
9.20000000e+01	1.65047840e+10
9.30000000e+01	1.71326768e+10
9.40000000e+01	1.77832103e+10
9.50000000e+01	1.84571387e+10
9.60000000e+01	1.91552383e+10
9.70000000e+01	1.98783075e+10
9.80000000e+01	2.06271677e+10
9.90000000e+01	2.14026632e+10
1.00000000e+02	2.22056621e+10
1.01000000e+02	2.30370569e+10
1.02000000e+02	2.38977643e+10
1.03000000e+02	2.47887266e+10
1.04000000e+02	2.57109114e+10
1.05000000e+02	2.66653125e+10
1.06000000e+02	2.76529503e+10
1.07000000e+02	2.86748721e+10
1.08000000e+02	2.97321528e+10
1.09000000e+02	3.08258951e+10
1.10000000e+02	3.19572302e+10
1.11000000e+02	3.31273184e+10
1.12000000e+02	3.43373488e+10
1.13000000e+02	3.55885407e+10
1.14000000e+02	3.68821433e+10
1.15000000e+02	3.82194365e+10
1.16000000e+02	3.96017311e+10
1.17000000e+02	4.10303694e+10
1.18000000e+02	4.25067255e+10
1.19000000e+02	4.40322055e+10
1.20000000e+02	4.56082483e+10
1.21000000e+02	4.72363254e+10
1.22000000e+02	4.89179417e+10
1.23000000e+02	5.06546356e+10
1.24000000e+02	5.24479792e+10
1.25000000e+02	5.42995788e+10
1.26000000e+02	5.62110752e+10
1.27000000e+02	5.81841438e+10
1.28000000e+02	6.02204946e+10
1.29000000e+02	6.23218729e+10
1.30000000e+02	6.44900593e+10
1.31000000e+02	6.67268696e+10
1.32000000e+02	6.90341553e+10
1.33000000e+02	7.14138033e+10
1.34000000e+02	7.38677365e+10
1.35000000e+02	7.63979134e+10
1.36000000e+02	7.90063283e+10
1.37000000e+02	8.16950114e+10
1.38000000e+02	8.44660283e+10
1.39000000e+02	8.73214808e+10
1.40000000e+02	9.02635057e+10
1.41000000e+02	9.32942756e+10
1.42000000e+02	9.64159981e+10
1.43000000e+02	9.96309161e+10
1.44000000e+02	1.02941307e+11
1.45000000e+02	1.06349483e+11
1.46000000e+02	1.09857790e+11
1.47000000e+02	1.13468608e+11
1.48000000e+02	1.17184350e+11
1.49000000e+02	1.21007464e+11
1.50000000e+02	1.24940426e+11
1.51000000e+02	1.28985748e+11
1.52000000e+02	1.33145972e+11
1.53000000e+02	1.37423671e+11
1.54000000e+02	1.41821446e+11
1.55000000e+02	1.46341930e+11
1.56000000e+02	1.50987783e+11
1.57000000e+02	1.55761693e+11
1.58000000e+02	1.60666375e+11
1.59000000e+02	1.65704569e+11
1.60000000e+02	1.70879042e+11
1.61000000e+02	1.76192583e+11
1.62000000e+02	1.81648004e+11
1.63000000e+02	1.87248140e+11
1.64000000e+02	1.92995845e+11
1.65000000e+02	1.98893994e+11
1.66000000e+02	2.04945479e+11
1.67000000e+02	2.11153209e+11
1.68000000e+02	2.17520108e+11
1.69000000e+02	2.24049117e+11
1.70000000e+02	2.30743184e+11
1.71000000e+02	2.37605274e+11
1.72000000e+02	2.44638357e+11
1.73000000e+02	2.51845414e+11
1.74000000e+02	2.59229429e+11
1.75000000e+02	2.66793394e+11
1.76000000e+02	2.74540303e+11
1.77000000e+02	2.82473148e+11
1.78000000e+02	2.90594924e+11
1.79000000e+02	2.98908622e+11
1.80000000e+02	3.07417228e+11
1.81000000e+02	3.16123722e+11
1.82000000e+02	3.25031074e+11
1.83000000e+02	3.34142245e+11
1.84000000e+02	3.43460184e+11
1.85000000e+02	3.52987824e+11
1.86000000e+02	3.62728080e+11
1.87000000e+02	3.72683851e+11
1.88000000e+02	3.82858012e+11
1.89000000e+02	3.93253416e+11
1.90000000e+02	4.03872890e+11
1.91000000e+02	4.14719232e+11
1.92000000e+02	4.25795213e+11
1.93000000e+02	4.37103567e+11
1.94000000e+02	4.48646996e+11
1.95000000e+02	4.60428163e+11
1.96000000e+02	4.72449694e+11
1.97000000e+02	4.84714171e+11
1.98000000e+02	4.97224132e+11
1.99000000e+02	5.09982068e+11
2.00000000e+02	5.22990421e+11
2.01000000e+02	5.36251582e+11
2.02000000e+02	5.49767888e+11
2.03000000e+02	5.63541620e+11
2.04000000e+02	5.77575000e+11
2.05000000e+02	5.91870188e+11
2.06000000e+02	6.06429283e+11
2.07000000e+02	6.21254317e+11
2.08000000e+02	6.36347253e+11
2.09000000e+02	6.51709987e+11
2.10000000e+02	6.67344338e+11
2.11000000e+02	6.83252055e+11
2.12000000e+02	6.99434807e+11
2.13000000e+02	7.15894184e+11
2.14000000e+02	7.32631696e+11
2.15000000e+02	7.49648769e+11
2.16000000e+02	7.66946743e+11
2.17000000e+02	7.84526872e+11
2.18000000e+02	8.02390320e+11
2.19000000e+02	8.20538159e+11
2.20000000e+02	8.38971369e+11
2.21000000e+02	8.57690833e+11
2.22000000e+02	8.76697339e+11
2.23000000e+02	8.95991577e+11
2.24000000e+02	9.15574135e+11
2.25000000e+02	9.35445501e+11
2.26000000e+02	9.55606058e+11
2.27000000e+02	9.76056087e+11
2.28000000e+02	9.96795760e+11
2.29000000e+02	1.01782514e+12
2.30000000e+02	1.03914420e+12
2.31000000e+02	1.06075277e+12
2.32000000e+02	1.08265059e+12
2.33000000e+02	1.10483730e+12
2.34000000e+02	1.12731240e+12
2.35000000e+02	1.15007529e+12
2.36000000e+02	1.17312526e+12
2.37000000e+02	1.19646148e+12
2.38000000e+02	1.22008301e+12
2.39000000e+02	1.24398878e+12
2.40000000e+02	1.26817762e+12
2.41000000e+02	1.29264824e+12
2.42000000e+02	1.31739923e+12
2.43000000e+02	1.34242906e+12
2.44000000e+02	1.36773608e+12
2.45000000e+02	1.39331856e+12
2.46000000e+02	1.41917459e+12
2.47000000e+02	1.44530220e+12
2.48000000e+02	1.47169928e+12
2.49000000e+02	1.49836360e+12
2.50000000e+02	1.52529284e+12
2.51000000e+02	1.55248453e+12
2.52000000e+02	1.57993612e+12
2.53000000e+02	1.60764493e+12
2.54000000e+02	1.63560817e+12
2.55000000e+02	1.66382295e+12
2.56000000e+02	1.69228626e+12
2.57000000e+02	1.72099498e+12
2.58000000e+02	1.74994591e+12
2.59000000e+02	1.77913570e+12
2.60000000e+02	1.80856095e+12
2.61000000e+02	1.83821811e+12
2.62000000e+02	1.86810356e+12
2.63000000e+02	1.89821357e+12
2.64000000e+02	1.92854431e+12
2.65000000e+02	1.95909188e+12
2.66000000e+02	1.98985226e+12
2.67000000e+02	2.02082134e+12
2.68000000e+02	2.05199496e+12
2.69000000e+02	2.08336883e+12
2.70000000e+02	2.11493859e+12
2.71000000e+02	2.14669982e+12
2.72000000e+02	2.17864800e+12
2.73000000e+02	2.21077854e+12
2.74000000e+02	2.24308679e+12
2.75000000e+02	2.27556801e+12
2.76000000e+02	2.30821740e+12
2.77000000e+02	2.34103010e+12
2.78000000e+02	2.37400120e+12
2.79000000e+02	2.40712571e+12
2.80000000e+02	2.44039860e+12
2.81000000e+02	2.47381478e+12
2.82000000e+02	2.50736912e+12
2.83000000e+02	2.54105643e+12
2.84000000e+02	2.57487149e+12
2.85000000e+02	2.60880904e+12
2.86000000e+02	2.64286378e+12
2.87000000e+02	2.67703039e+12
2.88000000e+02	2.71130349e+12
2.89000000e+02	2.74567772e+12
2.90000000e+02	2.78014766e+12
2.91000000e+02	2.81470788e+12
2.92000000e+02	2.84935294e+12
2.93000000e+02	2.88407740e+12
2.94000000e+02	2.91887579e+12
2.95000000e+02	2.95374265e+12
2.96000000e+02	2.98867251e+12
2.97000000e+02	3.02365990e+12
2.98000000e+02	3.05869936e+12
2.99000000e+02	3.09378544e+12
3.00000000e+02	3.12891271e+12
3.01000000e+02	3.16407574e+12
3.02000000e+02	3.19926913e+12
3.03000000e+02	3.23448749e+12
3.04000000e+02	3.26972547e+12
3.05000000e+02	3.30497775e+12
3.06000000e+02	3.34023902e+12
3.07000000e+02	3.37550403e+12
3.08000000e+02	3.41076756e+12
3.09000000e+02	3.44602443e+12
3.10000000e+02	3.48126951e+12
3.11000000e+02	3.51649770e+12
3.12000000e+02	3.55170396e+12
3.13000000e+02	3.58688333e+12
3.14000000e+02	3.62203086e+12
3.15000000e+02	3.65714169e+12
3.16000000e+02	3.69221101e+12
3.17000000e+02	3.72723408e+12
3.18000000e+02	3.76220621e+12
3.19000000e+02	3.79712280e+12
3.20000000e+02	3.83197930e+12
3.21000000e+02	3.86677125e+12
3.22000000e+02	3.90149425e+12
3.23000000e+02	3.93614399e+12
3.24000000e+02	3.97071621e+12
3.25000000e+02	4.00520677e+12
3.26000000e+02	4.03961158e+12
3.27000000e+02	4.07392663e+12
3.28000000e+02	4.10814802e+12
3.29000000e+02	4.14227192e+12
3.30000000e+02	4.17629456e+12
3.31000000e+02	4.21021229e+12
3.32000000e+02	4.24402153e+12
3.33000000e+02	4.27771880e+12
3.34000000e+02	4.31130067e+12
3.35000000e+02	4.34476383e+12
3.36000000e+02	4.37810505e+12
3.37000000e+02	4.41132118e+12
3.38000000e+02	4.44440914e+12
3.39000000e+02	4.47736596e+12
3.40000000e+02	4.51018874e+12
3.41000000e+02	4.54287464e+12
3.42000000e+02	4.57542094e+12
3.43000000e+02	4.60782497e+12
3.44000000e+02	4.64008413e+12
3.45000000e+02	4.67219591e+12
3.46000000e+02	4.70415788e+12
3.47000000e+02	4.73596763e+12
3.48000000e+02	4.76762288e+12
3.49000000e+02	4.79912135e+12
3.50000000e+02	4.83046087e+12
3.51000000e+02	4.86163928e+12
3.52000000e+02	4.89265450e+12
3.53000000e+02	4.92350449e+12
3.54000000e+02	4.95418725e+12
3.55000000e+02	4.98470080e+12
3.56000000e+02	5.01504322e+12
3.57000000e+02	5.04521260e+12
3.58000000e+02	5.07520705e+12
3.59000000e+02	5.10502471e+12
3.60000000e+02	5.13466371e+12
3.61000000e+02	5.16412220e+12
3.62000000e+02	5.19339832e+12
3.63000000e+02	5.22249020e+12
3.64000000e+02	5.25139595e+12
3.65000000e+02	5.28011367e+12
3.66000000e+02	5.30864141e+12
3.67000000e+02	5.33697719e+12
3.68000000e+02	5.36511900e+12
3.69000000e+02	5.39306476e+12
3.70000000e+02	5.42081233e+12
3.71000000e+02	5.44835950e+12
3.72000000e+02	5.47570398e+12
3.73000000e+02	5.50284342e+12
3.74000000e+02	5.52977534e+12
3.75000000e+02	5.55649718e+12
3.76000000e+02	5.58300625e+12
3.77000000e+02	5.60929978e+12
3.78000000e+02	5.63537482e+12
3.79000000e+02	5.66122833e+12
3.80000000e+02	5.68685709e+12
3.81000000e+02	5.71225775e+12
3.82000000e+02	5.73742678e+12
3.83000000e+02	5.76236051e+12
3.84000000e+02	5.78705505e+12
3.85000000e+02	5.81150635e+12
3.86000000e+02	5.83571018e+12
3.87000000e+02	5.85966207e+12
3.88000000e+02	5.88335737e+12
3.89000000e+02	5.90679120e+12
3.90000000e+02	5.92995847e+12
3.91000000e+02	5.95285385e+12
3.92000000e+02	5.97547176e+12
3.93000000e+02	5.99780641e+12
3.94000000e+02	6.01985173e+12
3.95000000e+02	6.04160142e+12
3.96000000e+02	6.06304890e+12
3.97000000e+02	6.08418736e+12
3.98000000e+02	6.10500969e+12
3.99000000e+02	6.12550852e+12
4.00000000e+02	6.14567621e+12
4.01000000e+02	6.16550484e+12
4.02000000e+02	6.18498622e+12
4.03000000e+02	6.20411188e+12
4.04000000e+02	6.22287306e+12
4.05000000e+02	6.24126072e+12
4.06000000e+02	6.25926556e+12
4.07000000e+02	6.27687798e+12
4.08000000e+02	6.29408811e+12
4.09000000e+02	6.31088581e+12
4.10000000e+02	6.32726066e+12
4.11000000e+02	6.34320199e+12
4.12000000e+02	6.35869884e+12
4.13000000e+02	6.37374002e+12
4.14000000e+02	6.38831408e+12
4.15000000e+02	6.40240930e+12
4.16000000e+02	6.41601377e+12
4.17000000e+02	6.42911531e+12
4.18000000e+02	6.44170155e+12
4.19000000e+02	6.45375988e+12
4.20000000e+02	6.46527751e+12
4.21000000e+02	6.47624147e+12
4.22000000e+02	6.48663858e+12
4.23000000e+02	6.49645554e+12
4.24000000e+02	6.50567886e+12
4.25000000e+02	6.51429495e+12
4.26000000e+02	6.52229006e+12
4.27000000e+02	6.52965038e+12
4.28000000e+02	6.53636198e+12
4.29000000e+02	6.54241087e+12
4.30000000e+02	6.54778301e+12
4.31000000e+02	6.55246432e+12
4.32000000e+02	6.55644070e+12
4.33000000e+02	6.55969808e+12
4.34000000e+02	6.56222238e+12
4.35000000e+02	6.56399959e+12
4.36000000e+02	6.56501577e+12
4.37000000e+02	6.56525707e+12
4.38000000e+02	6.56470974e+12
4.39000000e+02	6.56336019e+12
4.40000000e+02	6.56119496e+12
4.41000000e+02	6.55820082e+12
4.42000000e+02	6.55436471e+12
4.43000000e+02	6.54967384e+12
4.44000000e+02	6.54411565e+12
4.45000000e+02	6.53767789e+12
4.46000000e+02	6.53034863e+12
4.47000000e+02	6.52211627e+12
4.48000000e+02	6.51296957e+12
4.49000000e+02	6.50289771e+12
4.50000000e+02	6.49189028e+12
4.51000000e+02	6.47993733e+12
4.52000000e+02	6.46702938e+12
4.53000000e+02	6.45315747e+12
4.54000000e+02	6.43831317e+12
4.55000000e+02	6.42248862e+12
4.56000000e+02	6.40567655e+12
4.57000000e+02	6.38787031e+12
4.58000000e+02	6.36906393e+12
4.59000000e+02	6.34925209e+12
4.60000000e+02	6.32843020e+12
4.61000000e+02	6.30659440e+12
4.62000000e+02	6.28374160e+12
4.63000000e+02	6.25986953e+12
4.64000000e+02	6.23497671e+12
4.65000000e+02	6.20906256e+12
4.66000000e+02	6.18212735e+12
4.67000000e+02	6.15417230e+12
4.68000000e+02	6.12519955e+12
4.69000000e+02	6.09521221e+12
4.70000000e+02	6.06421440e+12
4.71000000e+02	6.03221129e+12
4.72000000e+02	5.99920906e+12
4.73000000e+02	5.96521501e+12
4.74000000e+02	5.93023753e+12
4.75000000e+02	5.89428616e+12
4.76000000e+02	5.85737156e+12
4.77000000e+02	5.81950560e+12
4.78000000e+02	5.78070135e+12
4.79000000e+02	5.74097306e+12
4.80000000e+02	5.70033626e+12
4.81000000e+02	5.65880771e+12
4.82000000e+02	5.61640540e+12
4.83000000e+02	5.57314862e+12
4.84000000e+02	5.52905793e+12
4.85000000e+02	5.48415514e+12
4.86000000e+02	5.43846334e+12
4.87000000e+02	5.39200687e+12
4.88000000e+02	5.34481134e+12
4.89000000e+02	5.29690355e+12
4.90000000e+02	5.24831152e+12
4.91000000e+02	5.19906443e+12
4.92000000e+02	5.14919260e+12
4.93000000e+02	5.09872742e+12
4.94000000e+02	5.04770132e+12
4.95000000e+02	4.99614770e+12
4.96000000e+02	4.94410085e+12
4.97000000e+02	4.89159589e+12
4.98000000e+02	4.83866870e+12
4.99000000e+02	4.78535579e+12
5.00000000e+02	4.73169421e+12
5.01000000e+02	4.67772150e+12
5.02000000e+02	4.62347548e+12
5.03000000e+02	4.56899423e+12
5.04000000e+02	4.51431589e+12
5.05000000e+02	4.45947858e+12
5.06000000e+02	4.40452024e+12
5.07000000e+02	4.34947853e+12
5.08000000e+02	4.29439064e+12
5.09000000e+02	4.23929322e+12
5.10000000e+02	4.18422218e+12
5.11000000e+02	4.12921263e+12
5.12000000e+02	4.07429868e+12
5.13000000e+02	4.01951335e+12
5.14000000e+02	3.96488848e+12
5.15000000e+02	3.91045455e+12
5.16000000e+02	3.85624066e+12
5.17000000e+02	3.80227436e+12
5.18000000e+02	3.74858163e+12
5.19000000e+02	3.69518677e+12
5.20000000e+02	3.64211235e+12
5.21000000e+02	3.58937919e+12
5.22000000e+02	3.53700626e+12
5.23000000e+02	3.48501073e+12
5.24000000e+02	3.43340792e+12
5.25000000e+02	3.38221128e+12
5.26000000e+02	3.33143245e+12
5.27000000e+02	3.28108128e+12
5.28000000e+02	3.23116582e+12
5.29000000e+02	3.18169240e+12
5.30000000e+02	3.13266568e+12
5.31000000e+02	3.08408872e+12
5.32000000e+02	3.03596302e+12
5.33000000e+02	2.98828862e+12
5.34000000e+02	2.94106419e+12
5.35000000e+02	2.89428708e+12
5.36000000e+02	2.84795347e+12
5.37000000e+02	2.80205840e+12
5.38000000e+02	2.75659590e+12
5.39000000e+02	2.71155909e+12
5.40000000e+02	2.66694025e+12
5.41000000e+02	2.62273097e+12
5.42000000e+02	2.57892218e+12
5.43000000e+02	2.53550430e+12
5.44000000e+02	2.49246733e+12
5.45000000e+02	2.44980089e+12
5.46000000e+02	2.40749440e+12
5.47000000e+02	2.36553707e+12
5.48000000e+02	2.32391809e+12
5.49000000e+02	2.28262663e+12
5.50000000e+02	2.24165195e+12
5.51000000e+02	2.20098350e+12
5.52000000e+02	2.16061097e+12
5.53000000e+02	2.12052437e+12
5.54000000e+02	2.08071410e+12
5.55000000e+02	2.04117103e+12
5.56000000e+02	2.00188653e+12
5.57000000e+02	1.96285257e+12
5.58000000e+02	1.92406177e+12
5.59000000e+02	1.88550743e+12
5.60000000e+02	1.84718361e+12
5.61000000e+02	1.80908517e+12
5.62000000e+02	1.77120781e+12
5.63000000e+02	1.73354813e+12
5.64000000e+02	1.69610364e+12
5.65000000e+02	1.65887282e+12
5.66000000e+02	1.62185514e+12
5.67000000e+02	1.58505108e+12
5.68000000e+02	1.54846217e+12
5.69000000e+02	1.51209096e+12
5.70000000e+02	1.47594109e+12
5.71000000e+02	1.44001726e+12
5.72000000e+02	1.40432523e+12
5.73000000e+02	1.36887181e+12
5.74000000e+02	1.33366485e+12
5.75000000e+02	1.29871323e+12
5.76000000e+02	1.26402680e+12
5.77000000e+02	1.22961637e+12
5.78000000e+02	1.19549365e+12
5.79000000e+02	1.16167121e+12
5.80000000e+02	1.12816241e+12
5.81000000e+02	1.09498135e+12
5.82000000e+02	1.06214276e+12
5.83000000e+02	1.02966197e+12
5.84000000e+02	9.97554793e+11
5.85000000e+02	9.65837426e+11
5.86000000e+02	9.34526374e+11
5.87000000e+02	9.03638338e+11
5.88000000e+02	8.73190108e+11
5.89000000e+02	8.43198457e+11
5.90000000e+02	8.13680031e+11
5.91000000e+02	7.84651233e+11
5.92000000e+02	7.56128118e+11
5.93000000e+02	7.28126276e+11
5.94000000e+02	7.00660733e+11
5.95000000e+02	6.73745843e+11
5.96000000e+02	6.47395186e+11
5.97000000e+02	6.21621481e+11
5.98000000e+02	5.96436489e+11
5.99000000e+02	5.71850934e+11
6.00000000e+02	5.47874433e+11
6.01000000e+02	5.24515435e+11
6.02000000e+02	5.01781165e+11
6.03000000e+02	4.79677577e+11
6.04000000e+02	4.58209326e+11
6.05000000e+02	4.37379746e+11
6.06000000e+02	4.17190866e+11
6.07000000e+02	3.97643287e+11
6.08000000e+02	3.78736362e+11
6.09000000e+02	3.60468100e+11
6.10000000e+02	3.42835223e+11
6.11000000e+02	3.25833210e+11
6.12000000e+02	3.09456321e+11
6.13000000e+02	2.93697670e+11
6.14000000e+02	2.78549268e+11
6.15000000e+02	2.64002100e+11
6.16000000e+02	2.50046177e+11
6.17000000e+02	2.36670621e+11
6.18000000e+02	2.23863740e+11
6.19000000e+02	2.11613092e+11
6.20000000e+02	1.99905576e+11
6.21000000e+02	1.88727528e+11
6.22000000e+02	1.78064770e+11
6.23000000e+02	1.67902703e+11
6.24000000e+02	1.58226368e+11
6.25000000e+02	1.49020544e+11
6.26000000e+02	1.40269824e+11
6.27000000e+02	1.31958649e+11
6.28000000e+02	1.24071393e+11
6.29000000e+02	1.16592430e+11
6.30000000e+02	1.09506191e+11
6.31000000e+02	1.02797200e+11
6.32000000e+02	9.64501324e+10
6.33000000e+02	9.04498712e+10
6.34000000e+02	8.47815292e+10
6.35000000e+02	7.94304859e+10
6.36000000e+02	7.43824351e+10
6.37000000e+02	6.96233962e+10
6.38000000e+02	6.51397381e+10
6.39000000e+02	6.09182117e+10
6.40000000e+02	5.69459553e+10
6.41000000e+02	5.32105056e+10
6.42000000e+02	4.96998183e+10
6.43000000e+02	4.64022667e+10
6.44000000e+02	4.33066451e+10
6.45000000e+02	4.04021780e+10
6.46000000e+02	3.76785128e+10
6.47000000e+02	3.51257193e+10
6.48000000e+02	3.27342893e+10
6.49000000e+02	3.04951256e+10
6.50000000e+02	2.83995384e+10
6.51000000e+02	2.64392377e+10
6.52000000e+02	2.46063206e+10
6.53000000e+02	2.28932659e+10
6.54000000e+02	2.12929206e+10
6.55000000e+02	1.97984888e+10
6.56000000e+02	1.84035219e+10
6.57000000e+02	1.71019045e+10
6.58000000e+02	1.58878440e+10
6.59000000e+02	1.47558573e+10
