# Profil de Te au temps 1.300000000000017e-11 
# simu : /Volumes/MERCURE/JOBS/Zeq1_tanh_50mic_1p5e20_B0_20ps/GNU/Te@y-c.set
# col 0 : abscisse (um)
# col 1 : Te (keV)
5.00000000e-01	9.95928039e-01
1.50000000e+00	9.95926524e-01
2.50000000e+00	9.95923518e-01
3.50000000e+00	9.95919006e-01
4.50000000e+00	9.95912986e-01
5.50000000e+00	9.95905459e-01
6.50000000e+00	9.95896428e-01
7.50000000e+00	9.95885890e-01
8.50000000e+00	9.95873845e-01
9.50000000e+00	9.95860294e-01
1.05000000e+01	9.95845236e-01
1.15000000e+01	9.95828670e-01
1.25000000e+01	9.95810596e-01
1.35000000e+01	9.95791013e-01
1.45000000e+01	9.95769921e-01
1.55000000e+01	9.95747318e-01
1.65000000e+01	9.95723205e-01
1.75000000e+01	9.95697580e-01
1.85000000e+01	9.95670443e-01
1.95000000e+01	9.95641793e-01
2.05000000e+01	9.95611628e-01
2.15000000e+01	9.95579949e-01
2.25000000e+01	9.95546753e-01
2.35000000e+01	9.95512041e-01
2.45000000e+01	9.95475811e-01
2.55000000e+01	9.95438061e-01
2.65000000e+01	9.95398791e-01
2.75000000e+01	9.95358000e-01
2.85000000e+01	9.95315686e-01
2.95000000e+01	9.95271848e-01
3.05000000e+01	9.95226485e-01
3.15000000e+01	9.95179596e-01
3.25000000e+01	9.95131179e-01
3.35000000e+01	9.95081233e-01
3.45000000e+01	9.95029757e-01
3.55000000e+01	9.94976749e-01
3.65000000e+01	9.94922208e-01
3.75000000e+01	9.94866132e-01
3.85000000e+01	9.94808521e-01
3.95000000e+01	9.94749371e-01
4.05000000e+01	9.94688683e-01
4.15000000e+01	9.94626454e-01
4.25000000e+01	9.94562683e-01
4.35000000e+01	9.94497369e-01
4.45000000e+01	9.94430509e-01
4.55000000e+01	9.94362103e-01
4.65000000e+01	9.94292148e-01
4.75000000e+01	9.94220644e-01
4.85000000e+01	9.94147588e-01
4.95000000e+01	9.94072979e-01
5.05000000e+01	9.93996816e-01
5.15000000e+01	9.93919096e-01
5.25000000e+01	9.93839819e-01
5.35000000e+01	9.93758982e-01
5.45000000e+01	9.93676584e-01
5.55000000e+01	9.93592624e-01
5.65000000e+01	9.93507100e-01
5.75000000e+01	9.93420010e-01
5.85000000e+01	9.93331353e-01
5.95000000e+01	9.93241127e-01
6.05000000e+01	9.93149331e-01
6.15000000e+01	9.93055963e-01
6.25000000e+01	9.92961022e-01
6.35000000e+01	9.92864506e-01
6.45000000e+01	9.92766413e-01
6.55000000e+01	9.92666743e-01
6.65000000e+01	9.92565494e-01
6.75000000e+01	9.92462664e-01
6.85000000e+01	9.92358252e-01
6.95000000e+01	9.92252257e-01
7.05000000e+01	9.92144677e-01
7.15000000e+01	9.92035511e-01
7.25000000e+01	9.91924758e-01
7.35000000e+01	9.91812416e-01
7.45000000e+01	9.91698485e-01
7.55000000e+01	9.91582962e-01
7.65000000e+01	9.91465848e-01
7.75000000e+01	9.91347140e-01
7.85000000e+01	9.91226837e-01
7.95000000e+01	9.91104939e-01
8.05000000e+01	9.90981445e-01
8.15000000e+01	9.90856353e-01
8.25000000e+01	9.90729663e-01
8.35000000e+01	9.90601373e-01
8.45000000e+01	9.90471482e-01
8.55000000e+01	9.90339991e-01
8.65000000e+01	9.90206897e-01
8.75000000e+01	9.90072201e-01
8.85000000e+01	9.89935901e-01
8.95000000e+01	9.89797997e-01
9.05000000e+01	9.89658488e-01
9.15000000e+01	9.89517373e-01
9.25000000e+01	9.89374652e-01
9.35000000e+01	9.89230325e-01
9.45000000e+01	9.89084390e-01
9.55000000e+01	9.88936847e-01
9.65000000e+01	9.88787696e-01
9.75000000e+01	9.88636936e-01
9.85000000e+01	9.88484568e-01
9.95000000e+01	9.88330590e-01
1.00500000e+02	9.88175002e-01
1.01500000e+02	9.88017805e-01
1.02500000e+02	9.87858997e-01
1.03500000e+02	9.87698579e-01
1.04500000e+02	9.87536550e-01
1.05500000e+02	9.87372911e-01
1.06500000e+02	9.87207661e-01
1.07500000e+02	9.87040800e-01
1.08500000e+02	9.86872328e-01
1.09500000e+02	9.86702246e-01
1.10500000e+02	9.86530552e-01
1.11500000e+02	9.86357247e-01
1.12500000e+02	9.86182332e-01
1.13500000e+02	9.86005806e-01
1.14500000e+02	9.85827669e-01
1.15500000e+02	9.85647921e-01
1.16500000e+02	9.85466563e-01
1.17500000e+02	9.85283594e-01
1.18500000e+02	9.85099016e-01
1.19500000e+02	9.84912827e-01
1.20500000e+02	9.84725028e-01
1.21500000e+02	9.84535619e-01
1.22500000e+02	9.84344601e-01
1.23500000e+02	9.84151973e-01
1.24500000e+02	9.83957736e-01
1.25500000e+02	9.83761890e-01
1.26500000e+02	9.83564434e-01
1.27500000e+02	9.83365370e-01
1.28500000e+02	9.83164697e-01
1.29500000e+02	9.82962415e-01
1.30500000e+02	9.82758525e-01
1.31500000e+02	9.82553025e-01
1.32500000e+02	9.82345917e-01
1.33500000e+02	9.82137201e-01
1.34500000e+02	9.81926876e-01
1.35500000e+02	9.81714942e-01
1.36500000e+02	9.81501399e-01
1.37500000e+02	9.81286246e-01
1.38500000e+02	9.81069485e-01
1.39500000e+02	9.80851114e-01
1.40500000e+02	9.80631132e-01
1.41500000e+02	9.80409541e-01
1.42500000e+02	9.80186338e-01
1.43500000e+02	9.79961524e-01
1.44500000e+02	9.79735097e-01
1.45500000e+02	9.79507058e-01
1.46500000e+02	9.79277405e-01
1.47500000e+02	9.79046137e-01
1.48500000e+02	9.78813254e-01
1.49500000e+02	9.78578755e-01
1.50500000e+02	9.78342637e-01
1.51500000e+02	9.78104900e-01
1.52500000e+02	9.77865542e-01
1.53500000e+02	9.77624563e-01
1.54500000e+02	9.77381959e-01
1.55500000e+02	9.77137730e-01
1.56500000e+02	9.76891873e-01
1.57500000e+02	9.76644387e-01
1.58500000e+02	9.76395268e-01
1.59500000e+02	9.76144515e-01
1.60500000e+02	9.75892125e-01
1.61500000e+02	9.75638095e-01
1.62500000e+02	9.75382423e-01
1.63500000e+02	9.75125104e-01
1.64500000e+02	9.74866137e-01
1.65500000e+02	9.74605517e-01
1.66500000e+02	9.74343241e-01
1.67500000e+02	9.74079305e-01
1.68500000e+02	9.73813705e-01
1.69500000e+02	9.73546436e-01
1.70500000e+02	9.73277493e-01
1.71500000e+02	9.73006873e-01
1.72500000e+02	9.72734570e-01
1.73500000e+02	9.72460579e-01
1.74500000e+02	9.72184893e-01
1.75500000e+02	9.71907508e-01
1.76500000e+02	9.71628418e-01
1.77500000e+02	9.71347615e-01
1.78500000e+02	9.71065093e-01
1.79500000e+02	9.70780845e-01
1.80500000e+02	9.70494864e-01
1.81500000e+02	9.70207143e-01
1.82500000e+02	9.69917673e-01
1.83500000e+02	9.69626447e-01
1.84500000e+02	9.69333455e-01
1.85500000e+02	9.69038689e-01
1.86500000e+02	9.68742140e-01
1.87500000e+02	9.68443798e-01
1.88500000e+02	9.68143653e-01
1.89500000e+02	9.67841696e-01
1.90500000e+02	9.67537914e-01
1.91500000e+02	9.67232297e-01
1.92500000e+02	9.66924834e-01
1.93500000e+02	9.66615513e-01
1.94500000e+02	9.66304320e-01
1.95500000e+02	9.65991244e-01
1.96500000e+02	9.65676272e-01
1.97500000e+02	9.65359388e-01
1.98500000e+02	9.65040581e-01
1.99500000e+02	9.64719834e-01
2.00500000e+02	9.64397133e-01
2.01500000e+02	9.64072462e-01
2.02500000e+02	9.63745806e-01
2.03500000e+02	9.63417148e-01
2.04500000e+02	9.63086471e-01
2.05500000e+02	9.62753758e-01
2.06500000e+02	9.62418990e-01
2.07500000e+02	9.62082149e-01
2.08500000e+02	9.61743216e-01
2.09500000e+02	9.61402172e-01
2.10500000e+02	9.61058996e-01
2.11500000e+02	9.60713667e-01
2.12500000e+02	9.60366164e-01
2.13500000e+02	9.60016466e-01
2.14500000e+02	9.59664549e-01
2.15500000e+02	9.59310391e-01
2.16500000e+02	9.58953969e-01
2.17500000e+02	9.58595257e-01
2.18500000e+02	9.58234231e-01
2.19500000e+02	9.57870866e-01
2.20500000e+02	9.57505135e-01
2.21500000e+02	9.57137011e-01
2.22500000e+02	9.56766467e-01
2.23500000e+02	9.56393475e-01
2.24500000e+02	9.56018006e-01
2.25500000e+02	9.55640030e-01
2.26500000e+02	9.55259518e-01
2.27500000e+02	9.54876438e-01
2.28500000e+02	9.54490759e-01
2.29500000e+02	9.54102448e-01
2.30500000e+02	9.53711473e-01
2.31500000e+02	9.53317800e-01
2.32500000e+02	9.52921394e-01
2.33500000e+02	9.52522219e-01
2.34500000e+02	9.52120241e-01
2.35500000e+02	9.51715422e-01
2.36500000e+02	9.51307725e-01
2.37500000e+02	9.50897111e-01
2.38500000e+02	9.50483542e-01
2.39500000e+02	9.50066977e-01
2.40500000e+02	9.49647376e-01
2.41500000e+02	9.49224697e-01
2.42500000e+02	9.48798898e-01
2.43500000e+02	9.48369937e-01
2.44500000e+02	9.47937768e-01
2.45500000e+02	9.47502348e-01
2.46500000e+02	9.47063631e-01
2.47500000e+02	9.46621570e-01
2.48500000e+02	9.46176118e-01
2.49500000e+02	9.45727227e-01
2.50500000e+02	9.45274848e-01
2.51500000e+02	9.44818930e-01
2.52500000e+02	9.44359425e-01
2.53500000e+02	9.43896278e-01
2.54500000e+02	9.43429439e-01
2.55500000e+02	9.42958854e-01
2.56500000e+02	9.42484468e-01
2.57500000e+02	9.42006225e-01
2.58500000e+02	9.41524071e-01
2.59500000e+02	9.41037948e-01
2.60500000e+02	9.40547798e-01
2.61500000e+02	9.40053561e-01
2.62500000e+02	9.39555179e-01
2.63500000e+02	9.39052590e-01
2.64500000e+02	9.38545733e-01
2.65500000e+02	9.38034544e-01
2.66500000e+02	9.37518960e-01
2.67500000e+02	9.36998917e-01
2.68500000e+02	9.36474348e-01
2.69500000e+02	9.35945188e-01
2.70500000e+02	9.35411368e-01
2.71500000e+02	9.34872820e-01
2.72500000e+02	9.34329475e-01
2.73500000e+02	9.33781261e-01
2.74500000e+02	9.33228108e-01
2.75500000e+02	9.32669942e-01
2.76500000e+02	9.32106690e-01
2.77500000e+02	9.31538277e-01
2.78500000e+02	9.30964628e-01
2.79500000e+02	9.30385665e-01
2.80500000e+02	9.29801311e-01
2.81500000e+02	9.29211488e-01
2.82500000e+02	9.28616114e-01
2.83500000e+02	9.28015109e-01
2.84500000e+02	9.27408392e-01
2.85500000e+02	9.26795878e-01
2.86500000e+02	9.26177484e-01
2.87500000e+02	9.25553125e-01
2.88500000e+02	9.24922713e-01
2.89500000e+02	9.24286161e-01
2.90500000e+02	9.23643380e-01
2.91500000e+02	9.22994282e-01
2.92500000e+02	9.22338774e-01
2.93500000e+02	9.21676765e-01
2.94500000e+02	9.21008162e-01
2.95500000e+02	9.20332869e-01
2.96500000e+02	9.19650792e-01
2.97500000e+02	9.18961833e-01
2.98500000e+02	9.18265896e-01
2.99500000e+02	9.17562880e-01
3.00500000e+02	9.16852685e-01
3.01500000e+02	9.16135211e-01
3.02500000e+02	9.15410353e-01
3.03500000e+02	9.14678009e-01
3.04500000e+02	9.13938073e-01
3.05500000e+02	9.13190438e-01
3.06500000e+02	9.12434998e-01
3.07500000e+02	9.11671642e-01
3.08500000e+02	9.10900261e-01
3.09500000e+02	9.10120744e-01
3.10500000e+02	9.09332977e-01
3.11500000e+02	9.08536847e-01
3.12500000e+02	9.07732238e-01
3.13500000e+02	9.06919034e-01
3.14500000e+02	9.06097116e-01
3.15500000e+02	9.05266366e-01
3.16500000e+02	9.04426662e-01
3.17500000e+02	9.03577884e-01
3.18500000e+02	9.02719907e-01
3.19500000e+02	9.01852607e-01
3.20500000e+02	9.00975858e-01
3.21500000e+02	9.00089532e-01
3.22500000e+02	8.99193502e-01
3.23500000e+02	8.98287636e-01
3.24500000e+02	8.97371803e-01
3.25500000e+02	8.96445871e-01
3.26500000e+02	8.95509705e-01
3.27500000e+02	8.94563170e-01
3.28500000e+02	8.93606127e-01
3.29500000e+02	8.92638440e-01
3.30500000e+02	8.91659968e-01
3.31500000e+02	8.90670570e-01
3.32500000e+02	8.89670102e-01
3.33500000e+02	8.88658422e-01
3.34500000e+02	8.87635382e-01
3.35500000e+02	8.86600838e-01
3.36500000e+02	8.85554639e-01
3.37500000e+02	8.84496636e-01
3.38500000e+02	8.83426679e-01
3.39500000e+02	8.82344614e-01
3.40500000e+02	8.81250287e-01
3.41500000e+02	8.80143544e-01
3.42500000e+02	8.79024227e-01
3.43500000e+02	8.77892178e-01
3.44500000e+02	8.76747237e-01
3.45500000e+02	8.75589244e-01
3.46500000e+02	8.74418037e-01
3.47500000e+02	8.73233451e-01
3.48500000e+02	8.72035323e-01
3.49500000e+02	8.70823484e-01
3.50500000e+02	8.69597769e-01
3.51500000e+02	8.68358009e-01
3.52500000e+02	8.67104032e-01
3.53500000e+02	8.65835668e-01
3.54500000e+02	8.64552745e-01
3.55500000e+02	8.63255088e-01
3.56500000e+02	8.61942522e-01
3.57500000e+02	8.60614873e-01
3.58500000e+02	8.59271961e-01
3.59500000e+02	8.57913610e-01
3.60500000e+02	8.56539639e-01
3.61500000e+02	8.55149869e-01
3.62500000e+02	8.53744118e-01
3.63500000e+02	8.52322204e-01
3.64500000e+02	8.50883944e-01
3.65500000e+02	8.49429153e-01
3.66500000e+02	8.47957647e-01
3.67500000e+02	8.46469240e-01
3.68500000e+02	8.44963746e-01
3.69500000e+02	8.43440978e-01
3.70500000e+02	8.41900748e-01
3.71500000e+02	8.40342868e-01
3.72500000e+02	8.38767149e-01
3.73500000e+02	8.37173402e-01
3.74500000e+02	8.35561437e-01
3.75500000e+02	8.33931065e-01
3.76500000e+02	8.32282096e-01
3.77500000e+02	8.30614338e-01
3.78500000e+02	8.28927602e-01
3.79500000e+02	8.27221697e-01
3.80500000e+02	8.25496433e-01
3.81500000e+02	8.23751619e-01
3.82500000e+02	8.21987066e-01
3.83500000e+02	8.20202582e-01
3.84500000e+02	8.18397979e-01
3.85500000e+02	8.16573068e-01
3.86500000e+02	8.14727660e-01
3.87500000e+02	8.12861568e-01
3.88500000e+02	8.10974604e-01
3.89500000e+02	8.09066581e-01
3.90500000e+02	8.07137315e-01
3.91500000e+02	8.05186622e-01
3.92500000e+02	8.03214317e-01
3.93500000e+02	8.01220219e-01
3.94500000e+02	7.99204148e-01
3.95500000e+02	7.97165924e-01
3.96500000e+02	7.95105369e-01
3.97500000e+02	7.93022309e-01
3.98500000e+02	7.90916569e-01
3.99500000e+02	7.88787976e-01
4.00500000e+02	7.86636361e-01
4.01500000e+02	7.84461557e-01
4.02500000e+02	7.82263396e-01
4.03500000e+02	7.80041718e-01
4.04500000e+02	7.77796360e-01
4.05500000e+02	7.75527165e-01
4.06500000e+02	7.73233978e-01
4.07500000e+02	7.70916647e-01
4.08500000e+02	7.68575023e-01
4.09500000e+02	7.66208961e-01
4.10500000e+02	7.63818317e-01
4.11500000e+02	7.61402954e-01
4.12500000e+02	7.58962735e-01
4.13500000e+02	7.56497530e-01
4.14500000e+02	7.54007210e-01
4.15500000e+02	7.51491652e-01
4.16500000e+02	7.48950737e-01
4.17500000e+02	7.46384350e-01
4.18500000e+02	7.43792380e-01
4.19500000e+02	7.41174722e-01
4.20500000e+02	7.38531273e-01
4.21500000e+02	7.35861938e-01
4.22500000e+02	7.33166625e-01
4.23500000e+02	7.30445248e-01
4.24500000e+02	7.27697727e-01
4.25500000e+02	7.24923985e-01
4.26500000e+02	7.22123952e-01
4.27500000e+02	7.19297565e-01
4.28500000e+02	7.16444766e-01
4.29500000e+02	7.13565501e-01
4.30500000e+02	7.10659724e-01
4.31500000e+02	7.07727396e-01
4.32500000e+02	7.04768482e-01
4.33500000e+02	7.01782957e-01
4.34500000e+02	6.98770798e-01
4.35500000e+02	6.95731993e-01
4.36500000e+02	6.92666535e-01
4.37500000e+02	6.89574424e-01
4.38500000e+02	6.86455668e-01
4.39500000e+02	6.83310282e-01
4.40500000e+02	6.80138289e-01
4.41500000e+02	6.76939718e-01
4.42500000e+02	6.73714608e-01
4.43500000e+02	6.70463005e-01
4.44500000e+02	6.67184963e-01
4.45500000e+02	6.63880545e-01
4.46500000e+02	6.60549822e-01
4.47500000e+02	6.57192873e-01
4.48500000e+02	6.53809786e-01
4.49500000e+02	6.50400661e-01
4.50500000e+02	6.46965603e-01
4.51500000e+02	6.43504729e-01
4.52500000e+02	6.40018165e-01
4.53500000e+02	6.36506047e-01
4.54500000e+02	6.32968521e-01
4.55500000e+02	6.29405744e-01
4.56500000e+02	6.25817883e-01
4.57500000e+02	6.22205117e-01
4.58500000e+02	6.18567634e-01
4.59500000e+02	6.14905636e-01
4.60500000e+02	6.11219337e-01
4.61500000e+02	6.07508962e-01
4.62500000e+02	6.03774748e-01
4.63500000e+02	6.00016948e-01
4.64500000e+02	5.96235825e-01
4.65500000e+02	5.92431658e-01
4.66500000e+02	5.88604741e-01
4.67500000e+02	5.84755381e-01
4.68500000e+02	5.80883900e-01
4.69500000e+02	5.76990639e-01
4.70500000e+02	5.73075953e-01
4.71500000e+02	5.69140214e-01
4.72500000e+02	5.65183813e-01
4.73500000e+02	5.61207157e-01
4.74500000e+02	5.57210674e-01
4.75500000e+02	5.53194812e-01
4.76500000e+02	5.49160037e-01
4.77500000e+02	5.45106837e-01
4.78500000e+02	5.41035723e-01
4.79500000e+02	5.36947227e-01
4.80500000e+02	5.32841904e-01
4.81500000e+02	5.28720334e-01
4.82500000e+02	5.24583122e-01
4.83500000e+02	5.20430899e-01
4.84500000e+02	5.16264320e-01
4.85500000e+02	5.12084070e-01
4.86500000e+02	5.07890862e-01
4.87500000e+02	5.03685435e-01
4.88500000e+02	4.99468562e-01
4.89500000e+02	4.95241042e-01
4.90500000e+02	4.91003708e-01
4.91500000e+02	4.86757426e-01
4.92500000e+02	4.82503090e-01
4.93500000e+02	4.78241631e-01
4.94500000e+02	4.73974013e-01
4.95500000e+02	4.69701234e-01
4.96500000e+02	4.65424324e-01
4.97500000e+02	4.61144353e-01
4.98500000e+02	4.56862421e-01
4.99500000e+02	4.52579667e-01
5.00500000e+02	4.48297262e-01
5.01500000e+02	4.44016415e-01
5.02500000e+02	4.39738366e-01
5.03500000e+02	4.35464393e-01
5.04500000e+02	4.31195805e-01
5.05500000e+02	4.26933946e-01
5.06500000e+02	4.22680188e-01
5.07500000e+02	4.18435938e-01
5.08500000e+02	4.14202628e-01
5.09500000e+02	4.09981720e-01
5.10500000e+02	4.05774702e-01
5.11500000e+02	4.01583082e-01
5.12500000e+02	3.97408394e-01
5.13500000e+02	3.93252186e-01
5.14500000e+02	3.89116024e-01
5.15500000e+02	3.85001487e-01
5.16500000e+02	3.80910163e-01
5.17500000e+02	3.76843644e-01
5.18500000e+02	3.72803527e-01
5.19500000e+02	3.68791406e-01
5.20500000e+02	3.64808869e-01
5.21500000e+02	3.60857494e-01
5.22500000e+02	3.56938845e-01
5.23500000e+02	3.53054466e-01
5.24500000e+02	3.49205879e-01
5.25500000e+02	3.45394577e-01
5.26500000e+02	3.41622020e-01
5.27500000e+02	3.37889631e-01
5.28500000e+02	3.34198791e-01
5.29500000e+02	3.30550833e-01
5.30500000e+02	3.26947042e-01
5.31500000e+02	3.23388646e-01
5.32500000e+02	3.19876814e-01
5.33500000e+02	3.16412653e-01
5.34500000e+02	3.12997203e-01
5.35500000e+02	3.09631434e-01
5.36500000e+02	3.06316246e-01
5.37500000e+02	3.03052462e-01
5.38500000e+02	2.99840828e-01
5.39500000e+02	2.96682013e-01
5.40500000e+02	2.93576605e-01
5.41500000e+02	2.90525111e-01
5.42500000e+02	2.87527958e-01
5.43500000e+02	2.84585489e-01
5.44500000e+02	2.81697968e-01
5.45500000e+02	2.78865579e-01
5.46500000e+02	2.76088426e-01
5.47500000e+02	2.73366536e-01
5.48500000e+02	2.70699858e-01
5.49500000e+02	2.68088271e-01
5.50500000e+02	2.65531580e-01
5.51500000e+02	2.63029523e-01
5.52500000e+02	2.60581773e-01
5.53500000e+02	2.58187940e-01
5.54500000e+02	2.55847575e-01
5.55500000e+02	2.53560173e-01
5.56500000e+02	2.51325180e-01
5.57500000e+02	2.49141990e-01
5.58500000e+02	2.47009956e-01
5.59500000e+02	2.44928387e-01
5.60500000e+02	2.42896558e-01
5.61500000e+02	2.40913709e-01
5.62500000e+02	2.38979051e-01
5.63500000e+02	2.37091767e-01
5.64500000e+02	2.35251020e-01
5.65500000e+02	2.33455952e-01
5.66500000e+02	2.31705687e-01
5.67500000e+02	2.29999339e-01
5.68500000e+02	2.28336010e-01
5.69500000e+02	2.26714794e-01
5.70500000e+02	2.25134781e-01
5.71500000e+02	2.23595059e-01
5.72500000e+02	2.22094713e-01
5.73500000e+02	2.20632832e-01
5.74500000e+02	2.19208510e-01
5.75500000e+02	2.17820843e-01
5.76500000e+02	2.16468937e-01
5.77500000e+02	2.15151905e-01
5.78500000e+02	2.13868872e-01
5.79500000e+02	2.12618973e-01
5.80500000e+02	2.11401356e-01
5.81500000e+02	2.10215180e-01
5.82500000e+02	2.09059621e-01
5.83500000e+02	2.07933868e-01
5.84500000e+02	2.06837126e-01
5.85500000e+02	2.05768616e-01
5.86500000e+02	2.04727576e-01
5.87500000e+02	2.03713259e-01
5.88500000e+02	2.02724936e-01
5.89500000e+02	2.01761895e-01
5.90500000e+02	2.00823441e-01
5.91500000e+02	1.99908896e-01
5.92500000e+02	1.99017600e-01
5.93500000e+02	1.98148909e-01
5.94500000e+02	1.97302197e-01
5.95500000e+02	1.96476856e-01
5.96500000e+02	1.95672292e-01
5.97500000e+02	1.94887931e-01
5.98500000e+02	1.94123212e-01
5.99500000e+02	1.93377593e-01
6.00500000e+02	1.92650547e-01
6.01500000e+02	1.91941560e-01
6.02500000e+02	1.91250138e-01
6.03500000e+02	1.90575798e-01
6.04500000e+02	1.89918073e-01
6.05500000e+02	1.89276511e-01
6.06500000e+02	1.88650672e-01
6.07500000e+02	1.88040133e-01
6.08500000e+02	1.87444481e-01
6.09500000e+02	1.86863317e-01
6.10500000e+02	1.86296255e-01
6.11500000e+02	1.85742921e-01
6.12500000e+02	1.85202953e-01
6.13500000e+02	1.84675999e-01
6.14500000e+02	1.84161721e-01
6.15500000e+02	1.83659790e-01
6.16500000e+02	1.83169888e-01
6.17500000e+02	1.82691708e-01
6.18500000e+02	1.82224951e-01
6.19500000e+02	1.81769329e-01
6.20500000e+02	1.81324563e-01
6.21500000e+02	1.80890384e-01
6.22500000e+02	1.80466530e-01
6.23500000e+02	1.80052749e-01
6.24500000e+02	1.79648795e-01
6.25500000e+02	1.79254434e-01
6.26500000e+02	1.78869435e-01
6.27500000e+02	1.78493576e-01
6.28500000e+02	1.78126645e-01
6.29500000e+02	1.77768433e-01
6.30500000e+02	1.77418739e-01
6.31500000e+02	1.77077370e-01
6.32500000e+02	1.76744137e-01
6.33500000e+02	1.76418859e-01
6.34500000e+02	1.76101360e-01
6.35500000e+02	1.75791470e-01
6.36500000e+02	1.75489023e-01
6.37500000e+02	1.75193861e-01
6.38500000e+02	1.74905830e-01
6.39500000e+02	1.74624780e-01
6.40500000e+02	1.74350567e-01
6.41500000e+02	1.74083052e-01
6.42500000e+02	1.73822099e-01
6.43500000e+02	1.73567580e-01
6.44500000e+02	1.73319367e-01
6.45500000e+02	1.73077339e-01
6.46500000e+02	1.72841378e-01
6.47500000e+02	1.72611370e-01
6.48500000e+02	1.72387207e-01
6.49500000e+02	1.72168781e-01
6.50500000e+02	1.71955990e-01
6.51500000e+02	1.71748737e-01
6.52500000e+02	1.71546926e-01
6.53500000e+02	1.71350465e-01
6.54500000e+02	1.71159267e-01
6.55500000e+02	1.70973245e-01
6.56500000e+02	1.70792319e-01
6.57500000e+02	1.70616414e-01
6.58500000e+02	1.70445458e-01
6.59500000e+02	1.70279366e-01
6.60500000e+02	1.70118053e-01
