# Profil de Te au temps 1.100000000000014e-11 
# simu : /Volumes/MERCURE/JOBS/Zeq1_tanh_50mic_1p5e20_B0_20ps/GNU/Te@y-c.set
# col 0 : abscisse (um)
# col 1 : Te (keV)
5.00000000e-01	9.99088590e-01
1.50000000e+00	9.99087886e-01
2.50000000e+00	9.99086490e-01
3.50000000e+00	9.99084393e-01
4.50000000e+00	9.99081593e-01
5.50000000e+00	9.99078092e-01
6.50000000e+00	9.99073887e-01
7.50000000e+00	9.99068977e-01
8.50000000e+00	9.99063362e-01
9.50000000e+00	9.99057037e-01
1.05000000e+01	9.99050002e-01
1.15000000e+01	9.99042254e-01
1.25000000e+01	9.99033789e-01
1.35000000e+01	9.99024606e-01
1.45000000e+01	9.99014700e-01
1.55000000e+01	9.99004067e-01
1.65000000e+01	9.98992705e-01
1.75000000e+01	9.98980609e-01
1.85000000e+01	9.98967775e-01
1.95000000e+01	9.98954199e-01
2.05000000e+01	9.98939874e-01
2.15000000e+01	9.98924797e-01
2.25000000e+01	9.98908963e-01
2.35000000e+01	9.98892365e-01
2.45000000e+01	9.98874998e-01
2.55000000e+01	9.98856855e-01
2.65000000e+01	9.98837932e-01
2.75000000e+01	9.98818221e-01
2.85000000e+01	9.98797715e-01
2.95000000e+01	9.98776408e-01
3.05000000e+01	9.98754293e-01
3.15000000e+01	9.98731362e-01
3.25000000e+01	9.98707608e-01
3.35000000e+01	9.98683022e-01
3.45000000e+01	9.98657597e-01
3.55000000e+01	9.98631325e-01
3.65000000e+01	9.98604197e-01
3.75000000e+01	9.98576205e-01
3.85000000e+01	9.98547340e-01
3.95000000e+01	9.98517592e-01
4.05000000e+01	9.98486952e-01
4.15000000e+01	9.98455412e-01
4.25000000e+01	9.98422961e-01
4.35000000e+01	9.98389589e-01
4.45000000e+01	9.98355288e-01
4.55000000e+01	9.98320045e-01
4.65000000e+01	9.98283852e-01
4.75000000e+01	9.98246696e-01
4.85000000e+01	9.98208569e-01
4.95000000e+01	9.98169459e-01
5.05000000e+01	9.98129354e-01
5.15000000e+01	9.98088244e-01
5.25000000e+01	9.98046117e-01
5.35000000e+01	9.98002961e-01
5.45000000e+01	9.97958766e-01
5.55000000e+01	9.97913519e-01
5.65000000e+01	9.97867207e-01
5.75000000e+01	9.97819820e-01
5.85000000e+01	9.97771345e-01
5.95000000e+01	9.97721769e-01
6.05000000e+01	9.97671080e-01
6.15000000e+01	9.97619266e-01
6.25000000e+01	9.97566313e-01
6.35000000e+01	9.97512208e-01
6.45000000e+01	9.97456940e-01
6.55000000e+01	9.97400493e-01
6.65000000e+01	9.97342857e-01
6.75000000e+01	9.97284016e-01
6.85000000e+01	9.97223959e-01
6.95000000e+01	9.97162671e-01
7.05000000e+01	9.97100138e-01
7.15000000e+01	9.97036348e-01
7.25000000e+01	9.96971287e-01
7.35000000e+01	9.96904940e-01
7.45000000e+01	9.96837294e-01
7.55000000e+01	9.96768336e-01
7.65000000e+01	9.96698050e-01
7.75000000e+01	9.96626424e-01
7.85000000e+01	9.96553443e-01
7.95000000e+01	9.96479093e-01
8.05000000e+01	9.96403359e-01
8.15000000e+01	9.96326229e-01
8.25000000e+01	9.96247687e-01
8.35000000e+01	9.96167720e-01
8.45000000e+01	9.96086313e-01
8.55000000e+01	9.96003452e-01
8.65000000e+01	9.95919124e-01
8.75000000e+01	9.95833313e-01
8.85000000e+01	9.95746005e-01
8.95000000e+01	9.95657187e-01
9.05000000e+01	9.95566844e-01
9.15000000e+01	9.95474961e-01
9.25000000e+01	9.95381525e-01
9.35000000e+01	9.95286522e-01
9.45000000e+01	9.95189937e-01
9.55000000e+01	9.95091756e-01
9.65000000e+01	9.94991966e-01
9.75000000e+01	9.94890552e-01
9.85000000e+01	9.94787500e-01
9.95000000e+01	9.94682797e-01
1.00500000e+02	9.94576428e-01
1.01500000e+02	9.94468381e-01
1.02500000e+02	9.94358640e-01
1.03500000e+02	9.94247194e-01
1.04500000e+02	9.94134027e-01
1.05500000e+02	9.94019127e-01
1.06500000e+02	9.93902480e-01
1.07500000e+02	9.93784073e-01
1.08500000e+02	9.93663893e-01
1.09500000e+02	9.93541926e-01
1.10500000e+02	9.93418160e-01
1.11500000e+02	9.93292582e-01
1.12500000e+02	9.93165179e-01
1.13500000e+02	9.93035938e-01
1.14500000e+02	9.92904846e-01
1.15500000e+02	9.92771892e-01
1.16500000e+02	9.92637063e-01
1.17500000e+02	9.92500346e-01
1.18500000e+02	9.92361730e-01
1.19500000e+02	9.92221202e-01
1.20500000e+02	9.92078751e-01
1.21500000e+02	9.91934365e-01
1.22500000e+02	9.91788033e-01
1.23500000e+02	9.91639743e-01
1.24500000e+02	9.91489484e-01
1.25500000e+02	9.91337244e-01
1.26500000e+02	9.91183014e-01
1.27500000e+02	9.91026781e-01
1.28500000e+02	9.90868535e-01
1.29500000e+02	9.90708266e-01
1.30500000e+02	9.90545963e-01
1.31500000e+02	9.90381617e-01
1.32500000e+02	9.90215216e-01
1.33500000e+02	9.90046752e-01
1.34500000e+02	9.89876213e-01
1.35500000e+02	9.89703592e-01
1.36500000e+02	9.89528878e-01
1.37500000e+02	9.89352062e-01
1.38500000e+02	9.89173135e-01
1.39500000e+02	9.88992088e-01
1.40500000e+02	9.88808913e-01
1.41500000e+02	9.88623600e-01
1.42500000e+02	9.88436141e-01
1.43500000e+02	9.88246528e-01
1.44500000e+02	9.88054752e-01
1.45500000e+02	9.87860806e-01
1.46500000e+02	9.87664683e-01
1.47500000e+02	9.87466373e-01
1.48500000e+02	9.87265870e-01
1.49500000e+02	9.87063166e-01
1.50500000e+02	9.86858255e-01
1.51500000e+02	9.86651129e-01
1.52500000e+02	9.86441780e-01
1.53500000e+02	9.86230203e-01
1.54500000e+02	9.86016391e-01
1.55500000e+02	9.85800338e-01
1.56500000e+02	9.85582036e-01
1.57500000e+02	9.85361480e-01
1.58500000e+02	9.85138664e-01
1.59500000e+02	9.84913581e-01
1.60500000e+02	9.84686226e-01
1.61500000e+02	9.84456594e-01
1.62500000e+02	9.84224678e-01
1.63500000e+02	9.83990474e-01
1.64500000e+02	9.83753975e-01
1.65500000e+02	9.83515177e-01
1.66500000e+02	9.83274075e-01
1.67500000e+02	9.83030663e-01
1.68500000e+02	9.82784936e-01
1.69500000e+02	9.82536890e-01
1.70500000e+02	9.82286520e-01
1.71500000e+02	9.82033821e-01
1.72500000e+02	9.81778789e-01
1.73500000e+02	9.81521418e-01
1.74500000e+02	9.81261704e-01
1.75500000e+02	9.80999643e-01
1.76500000e+02	9.80735231e-01
1.77500000e+02	9.80468463e-01
1.78500000e+02	9.80199334e-01
1.79500000e+02	9.79927840e-01
1.80500000e+02	9.79653977e-01
1.81500000e+02	9.79377740e-01
1.82500000e+02	9.79099126e-01
1.83500000e+02	9.78818129e-01
1.84500000e+02	9.78534746e-01
1.85500000e+02	9.78248971e-01
1.86500000e+02	9.77960801e-01
1.87500000e+02	9.77670231e-01
1.88500000e+02	9.77377256e-01
1.89500000e+02	9.77081872e-01
1.90500000e+02	9.76784074e-01
1.91500000e+02	9.76483857e-01
1.92500000e+02	9.76181217e-01
1.93500000e+02	9.75876147e-01
1.94500000e+02	9.75568644e-01
1.95500000e+02	9.75258702e-01
1.96500000e+02	9.74946315e-01
1.97500000e+02	9.74631478e-01
1.98500000e+02	9.74314186e-01
1.99500000e+02	9.73994431e-01
2.00500000e+02	9.73672209e-01
2.01500000e+02	9.73347513e-01
2.02500000e+02	9.73020337e-01
2.03500000e+02	9.72690673e-01
2.04500000e+02	9.72358515e-01
2.05500000e+02	9.72023855e-01
2.06500000e+02	9.71686687e-01
2.07500000e+02	9.71347002e-01
2.08500000e+02	9.71004792e-01
2.09500000e+02	9.70660049e-01
2.10500000e+02	9.70312765e-01
2.11500000e+02	9.69962929e-01
2.12500000e+02	9.69610534e-01
2.13500000e+02	9.69255569e-01
2.14500000e+02	9.68898024e-01
2.15500000e+02	9.68537889e-01
2.16500000e+02	9.68175152e-01
2.17500000e+02	9.67809803e-01
2.18500000e+02	9.67441829e-01
2.19500000e+02	9.67071219e-01
2.20500000e+02	9.66697959e-01
2.21500000e+02	9.66322038e-01
2.22500000e+02	9.65943439e-01
2.23500000e+02	9.65562151e-01
2.24500000e+02	9.65178157e-01
2.25500000e+02	9.64791443e-01
2.26500000e+02	9.64401993e-01
2.27500000e+02	9.64009790e-01
2.28500000e+02	9.63614817e-01
2.29500000e+02	9.63217057e-01
2.30500000e+02	9.62816490e-01
2.31500000e+02	9.62413099e-01
2.32500000e+02	9.62006864e-01
2.33500000e+02	9.61597763e-01
2.34500000e+02	9.61185776e-01
2.35500000e+02	9.60770882e-01
2.36500000e+02	9.60353057e-01
2.37500000e+02	9.59932278e-01
2.38500000e+02	9.59508522e-01
2.39500000e+02	9.59081762e-01
2.40500000e+02	9.58651974e-01
2.41500000e+02	9.58219131e-01
2.42500000e+02	9.57783205e-01
2.43500000e+02	9.57344167e-01
2.44500000e+02	9.56901990e-01
2.45500000e+02	9.56456641e-01
2.46500000e+02	9.56008091e-01
2.47500000e+02	9.55556307e-01
2.48500000e+02	9.55101256e-01
2.49500000e+02	9.54642904e-01
2.50500000e+02	9.54181216e-01
2.51500000e+02	9.53716155e-01
2.52500000e+02	9.53247685e-01
2.53500000e+02	9.52775766e-01
2.54500000e+02	9.52300361e-01
2.55500000e+02	9.51821427e-01
2.56500000e+02	9.51338924e-01
2.57500000e+02	9.50852808e-01
2.58500000e+02	9.50363036e-01
2.59500000e+02	9.49869562e-01
2.60500000e+02	9.49372341e-01
2.61500000e+02	9.48871323e-01
2.62500000e+02	9.48366461e-01
2.63500000e+02	9.47857703e-01
2.64500000e+02	9.47344999e-01
2.65500000e+02	9.46828296e-01
2.66500000e+02	9.46307540e-01
2.67500000e+02	9.45782674e-01
2.68500000e+02	9.45253643e-01
2.69500000e+02	9.44720387e-01
2.70500000e+02	9.44182847e-01
2.71500000e+02	9.43640963e-01
2.72500000e+02	9.43094670e-01
2.73500000e+02	9.42543906e-01
2.74500000e+02	9.41988605e-01
2.75500000e+02	9.41428700e-01
2.76500000e+02	9.40864122e-01
2.77500000e+02	9.40294801e-01
2.78500000e+02	9.39720665e-01
2.79500000e+02	9.39141642e-01
2.80500000e+02	9.38557657e-01
2.81500000e+02	9.37968632e-01
2.82500000e+02	9.37374491e-01
2.83500000e+02	9.36775153e-01
2.84500000e+02	9.36170538e-01
2.85500000e+02	9.35560561e-01
2.86500000e+02	9.34945139e-01
2.87500000e+02	9.34324186e-01
2.88500000e+02	9.33697613e-01
2.89500000e+02	9.33065330e-01
2.90500000e+02	9.32427246e-01
2.91500000e+02	9.31783268e-01
2.92500000e+02	9.31133300e-01
2.93500000e+02	9.30477247e-01
2.94500000e+02	9.29815008e-01
2.95500000e+02	9.29146485e-01
2.96500000e+02	9.28471574e-01
2.97500000e+02	9.27790173e-01
2.98500000e+02	9.27102174e-01
2.99500000e+02	9.26407470e-01
3.00500000e+02	9.25705951e-01
3.01500000e+02	9.24997507e-01
3.02500000e+02	9.24282024e-01
3.03500000e+02	9.23559386e-01
3.04500000e+02	9.22829477e-01
3.05500000e+02	9.22092177e-01
3.06500000e+02	9.21347365e-01
3.07500000e+02	9.20594920e-01
3.08500000e+02	9.19834715e-01
3.09500000e+02	9.19066624e-01
3.10500000e+02	9.18290518e-01
3.11500000e+02	9.17506268e-01
3.12500000e+02	9.16713739e-01
3.13500000e+02	9.15912798e-01
3.14500000e+02	9.15103308e-01
3.15500000e+02	9.14285130e-01
3.16500000e+02	9.13458124e-01
3.17500000e+02	9.12622147e-01
3.18500000e+02	9.11777055e-01
3.19500000e+02	9.10922701e-01
3.20500000e+02	9.10058937e-01
3.21500000e+02	9.09185612e-01
3.22500000e+02	9.08302573e-01
3.23500000e+02	9.07409665e-01
3.24500000e+02	9.06506733e-01
3.25500000e+02	9.05593618e-01
3.26500000e+02	9.04670158e-01
3.27500000e+02	9.03736191e-01
3.28500000e+02	9.02791552e-01
3.29500000e+02	9.01836075e-01
3.30500000e+02	9.00869591e-01
3.31500000e+02	8.99891928e-01
3.32500000e+02	8.98902914e-01
3.33500000e+02	8.97902375e-01
3.34500000e+02	8.96890132e-01
3.35500000e+02	8.95866008e-01
3.36500000e+02	8.94829820e-01
3.37500000e+02	8.93781388e-01
3.38500000e+02	8.92720524e-01
3.39500000e+02	8.91647043e-01
3.40500000e+02	8.90560755e-01
3.41500000e+02	8.89461469e-01
3.42500000e+02	8.88348994e-01
3.43500000e+02	8.87223133e-01
3.44500000e+02	8.86083689e-01
3.45500000e+02	8.84930465e-01
3.46500000e+02	8.83763260e-01
3.47500000e+02	8.82581870e-01
3.48500000e+02	8.81386092e-01
3.49500000e+02	8.80175719e-01
3.50500000e+02	8.78950542e-01
3.51500000e+02	8.77710353e-01
3.52500000e+02	8.76454939e-01
3.53500000e+02	8.75184086e-01
3.54500000e+02	8.73897580e-01
3.55500000e+02	8.72595202e-01
3.56500000e+02	8.71276735e-01
3.57500000e+02	8.69941958e-01
3.58500000e+02	8.68590649e-01
3.59500000e+02	8.67222583e-01
3.60500000e+02	8.65837537e-01
3.61500000e+02	8.64435283e-01
3.62500000e+02	8.63015592e-01
3.63500000e+02	8.61578236e-01
3.64500000e+02	8.60122984e-01
3.65500000e+02	8.58649602e-01
3.66500000e+02	8.57157858e-01
3.67500000e+02	8.55647517e-01
3.68500000e+02	8.54118343e-01
3.69500000e+02	8.52570098e-01
3.70500000e+02	8.51002545e-01
3.71500000e+02	8.49415445e-01
3.72500000e+02	8.47808557e-01
3.73500000e+02	8.46181642e-01
3.74500000e+02	8.44534458e-01
3.75500000e+02	8.42866763e-01
3.76500000e+02	8.41178314e-01
3.77500000e+02	8.39468868e-01
3.78500000e+02	8.37738183e-01
3.79500000e+02	8.35986014e-01
3.80500000e+02	8.34212117e-01
3.81500000e+02	8.32416250e-01
3.82500000e+02	8.30598167e-01
3.83500000e+02	8.28757626e-01
3.84500000e+02	8.26894383e-01
3.85500000e+02	8.25008196e-01
3.86500000e+02	8.23098821e-01
3.87500000e+02	8.21166018e-01
3.88500000e+02	8.19209545e-01
3.89500000e+02	8.17229163e-01
3.90500000e+02	8.15224633e-01
3.91500000e+02	8.13195717e-01
3.92500000e+02	8.11142179e-01
3.93500000e+02	8.09063785e-01
3.94500000e+02	8.06960300e-01
3.95500000e+02	8.04831496e-01
3.96500000e+02	8.02677141e-01
3.97500000e+02	8.00497011e-01
3.98500000e+02	7.98290879e-01
3.99500000e+02	7.96058525e-01
4.00500000e+02	7.93799728e-01
4.01500000e+02	7.91514274e-01
4.02500000e+02	7.89201948e-01
4.03500000e+02	7.86862541e-01
4.04500000e+02	7.84495847e-01
4.05500000e+02	7.82101662e-01
4.06500000e+02	7.79679789e-01
4.07500000e+02	7.77230032e-01
4.08500000e+02	7.74752201e-01
4.09500000e+02	7.72246111e-01
4.10500000e+02	7.69711580e-01
4.11500000e+02	7.67148432e-01
4.12500000e+02	7.64556495e-01
4.13500000e+02	7.61935605e-01
4.14500000e+02	7.59285601e-01
4.15500000e+02	7.56606328e-01
4.16500000e+02	7.53897639e-01
4.17500000e+02	7.51159391e-01
4.18500000e+02	7.48391447e-01
4.19500000e+02	7.45593680e-01
4.20500000e+02	7.42765967e-01
4.21500000e+02	7.39908192e-01
4.22500000e+02	7.37020248e-01
4.23500000e+02	7.34102035e-01
4.24500000e+02	7.31153459e-01
4.25500000e+02	7.28174435e-01
4.26500000e+02	7.25164888e-01
4.27500000e+02	7.22124749e-01
4.28500000e+02	7.19053959e-01
4.29500000e+02	7.15952465e-01
4.30500000e+02	7.12820228e-01
4.31500000e+02	7.09657213e-01
4.32500000e+02	7.06463397e-01
4.33500000e+02	7.03238768e-01
4.34500000e+02	6.99983320e-01
4.35500000e+02	6.96697060e-01
4.36500000e+02	6.93380005e-01
4.37500000e+02	6.90032180e-01
4.38500000e+02	6.86653624e-01
4.39500000e+02	6.83244385e-01
4.40500000e+02	6.79804522e-01
4.41500000e+02	6.76334105e-01
4.42500000e+02	6.72833217e-01
4.43500000e+02	6.69301951e-01
4.44500000e+02	6.65740413e-01
4.45500000e+02	6.62148720e-01
4.46500000e+02	6.58527003e-01
4.47500000e+02	6.54875405e-01
4.48500000e+02	6.51194080e-01
4.49500000e+02	6.47483198e-01
4.50500000e+02	6.43742940e-01
4.51500000e+02	6.39973502e-01
4.52500000e+02	6.36175094e-01
4.53500000e+02	6.32347940e-01
4.54500000e+02	6.28492278e-01
4.55500000e+02	6.24608361e-01
4.56500000e+02	6.20696458e-01
4.57500000e+02	6.16756854e-01
4.58500000e+02	6.12789847e-01
4.59500000e+02	6.08795755e-01
4.60500000e+02	6.04774912e-01
4.61500000e+02	6.00727668e-01
4.62500000e+02	5.96654391e-01
4.63500000e+02	5.92555470e-01
4.64500000e+02	5.88431310e-01
4.65500000e+02	5.84282336e-01
4.66500000e+02	5.80108993e-01
4.67500000e+02	5.75911749e-01
4.68500000e+02	5.71691089e-01
4.69500000e+02	5.67447525e-01
4.70500000e+02	5.63181589e-01
4.71500000e+02	5.58893836e-01
4.72500000e+02	5.54584847e-01
4.73500000e+02	5.50255228e-01
4.74500000e+02	5.45905609e-01
4.75500000e+02	5.41536650e-01
4.76500000e+02	5.37149037e-01
4.77500000e+02	5.32743483e-01
4.78500000e+02	5.28320735e-01
4.79500000e+02	5.23881566e-01
4.80500000e+02	5.19426783e-01
4.81500000e+02	5.14957225e-01
4.82500000e+02	5.10473764e-01
4.83500000e+02	5.05977306e-01
4.84500000e+02	5.01468793e-01
4.85500000e+02	4.96949201e-01
4.86500000e+02	4.92419546e-01
4.87500000e+02	4.87880879e-01
4.88500000e+02	4.83334290e-01
4.89500000e+02	4.78780909e-01
4.90500000e+02	4.74221903e-01
4.91500000e+02	4.69658482e-01
4.92500000e+02	4.65091894e-01
4.93500000e+02	4.60523428e-01
4.94500000e+02	4.55954416e-01
4.95500000e+02	4.51386226e-01
4.96500000e+02	4.46820270e-01
4.97500000e+02	4.42257999e-01
4.98500000e+02	4.37700902e-01
4.99500000e+02	4.33150507e-01
5.00500000e+02	4.28608380e-01
5.01500000e+02	4.24076122e-01
5.02500000e+02	4.19555368e-01
5.03500000e+02	4.15047786e-01
5.04500000e+02	4.10555074e-01
5.05500000e+02	4.06078957e-01
5.06500000e+02	4.01621187e-01
5.07500000e+02	3.97183537e-01
5.08500000e+02	3.92767796e-01
5.09500000e+02	3.88375773e-01
5.10500000e+02	3.84009283e-01
5.11500000e+02	3.79670152e-01
5.12500000e+02	3.75360204e-01
5.13500000e+02	3.71081265e-01
5.14500000e+02	3.66835150e-01
5.15500000e+02	3.62623663e-01
5.16500000e+02	3.58448590e-01
5.17500000e+02	3.54311693e-01
5.18500000e+02	3.50214706e-01
5.19500000e+02	3.46159328e-01
5.20500000e+02	3.42147216e-01
5.21500000e+02	3.38179983e-01
5.22500000e+02	3.34259191e-01
5.23500000e+02	3.30386342e-01
5.24500000e+02	3.26562880e-01
5.25500000e+02	3.22790177e-01
5.26500000e+02	3.19069538e-01
5.27500000e+02	3.15402188e-01
5.28500000e+02	3.11789273e-01
5.29500000e+02	3.08231855e-01
5.30500000e+02	3.04730907e-01
5.31500000e+02	3.01287314e-01
5.32500000e+02	2.97901867e-01
5.33500000e+02	2.94575263e-01
5.34500000e+02	2.91308105e-01
5.35500000e+02	2.88100897e-01
5.36500000e+02	2.84954049e-01
5.37500000e+02	2.81867873e-01
5.38500000e+02	2.78842587e-01
5.39500000e+02	2.75878314e-01
5.40500000e+02	2.72975086e-01
5.41500000e+02	2.70132843e-01
5.42500000e+02	2.67351440e-01
5.43500000e+02	2.64630646e-01
5.44500000e+02	2.61970149e-01
5.45500000e+02	2.59369561e-01
5.46500000e+02	2.56828417e-01
5.47500000e+02	2.54346187e-01
5.48500000e+02	2.51922273e-01
5.49500000e+02	2.49556017e-01
5.50500000e+02	2.47246703e-01
5.51500000e+02	2.44993566e-01
5.52500000e+02	2.42795792e-01
5.53500000e+02	2.40652524e-01
5.54500000e+02	2.38562868e-01
5.55500000e+02	2.36525894e-01
5.56500000e+02	2.34540643e-01
5.57500000e+02	2.32606132e-01
5.58500000e+02	2.30721355e-01
5.59500000e+02	2.28885287e-01
5.60500000e+02	2.27096891e-01
5.61500000e+02	2.25355117e-01
5.62500000e+02	2.23658911e-01
5.63500000e+02	2.22007210e-01
5.64500000e+02	2.20398954e-01
5.65500000e+02	2.18833080e-01
5.66500000e+02	2.17308532e-01
5.67500000e+02	2.15824257e-01
5.68500000e+02	2.14379211e-01
5.69500000e+02	2.12972361e-01
5.70500000e+02	2.11602682e-01
5.71500000e+02	2.10269164e-01
5.72500000e+02	2.08970812e-01
5.73500000e+02	2.07706645e-01
5.74500000e+02	2.06475699e-01
5.75500000e+02	2.05277025e-01
5.76500000e+02	2.04109696e-01
5.77500000e+02	2.02972800e-01
5.78500000e+02	2.01865447e-01
5.79500000e+02	2.00786765e-01
5.80500000e+02	1.99735901e-01
5.81500000e+02	1.98712024e-01
5.82500000e+02	1.97714322e-01
5.83500000e+02	1.96742004e-01
5.84500000e+02	1.95794298e-01
5.85500000e+02	1.94870455e-01
5.86500000e+02	1.93969742e-01
5.87500000e+02	1.93091449e-01
5.88500000e+02	1.92234886e-01
5.89500000e+02	1.91399380e-01
5.90500000e+02	1.90584279e-01
5.91500000e+02	1.89788950e-01
5.92500000e+02	1.89012777e-01
5.93500000e+02	1.88255165e-01
5.94500000e+02	1.87515534e-01
5.95500000e+02	1.86793324e-01
5.96500000e+02	1.86087991e-01
5.97500000e+02	1.85399008e-01
5.98500000e+02	1.84725863e-01
5.99500000e+02	1.84068063e-01
6.00500000e+02	1.83425128e-01
6.01500000e+02	1.82796596e-01
6.02500000e+02	1.82182016e-01
6.03500000e+02	1.81580956e-01
6.04500000e+02	1.80992995e-01
6.05500000e+02	1.80417727e-01
6.06500000e+02	1.79854759e-01
6.07500000e+02	1.79303713e-01
6.08500000e+02	1.78764220e-01
6.09500000e+02	1.78235928e-01
6.10500000e+02	1.77718493e-01
6.11500000e+02	1.77211586e-01
6.12500000e+02	1.76714889e-01
6.13500000e+02	1.76228094e-01
6.14500000e+02	1.75750905e-01
6.15500000e+02	1.75283038e-01
6.16500000e+02	1.74824217e-01
6.17500000e+02	1.74374177e-01
6.18500000e+02	1.73932666e-01
6.19500000e+02	1.73499439e-01
6.20500000e+02	1.73074262e-01
6.21500000e+02	1.72656909e-01
6.22500000e+02	1.72247165e-01
6.23500000e+02	1.71844824e-01
6.24500000e+02	1.71449688e-01
6.25500000e+02	1.71061570e-01
6.26500000e+02	1.70680288e-01
6.27500000e+02	1.70305673e-01
6.28500000e+02	1.69937559e-01
6.29500000e+02	1.69575796e-01
6.30500000e+02	1.69220234e-01
6.31500000e+02	1.68870731e-01
6.32500000e+02	1.68527180e-01
6.33500000e+02	1.68189417e-01
6.34500000e+02	1.67857342e-01
6.35500000e+02	1.67530844e-01
6.36500000e+02	1.67209827e-01
6.37500000e+02	1.66894205e-01
6.38500000e+02	1.66583874e-01
6.39500000e+02	1.66278771e-01
6.40500000e+02	1.65978802e-01
6.41500000e+02	1.65683913e-01
6.42500000e+02	1.65394035e-01
6.43500000e+02	1.65109108e-01
6.44500000e+02	1.64829094e-01
6.45500000e+02	1.64553928e-01
6.46500000e+02	1.64283591e-01
6.47500000e+02	1.64018031e-01
6.48500000e+02	1.63757227e-01
6.49500000e+02	1.63501153e-01
6.50500000e+02	1.63249780e-01
6.51500000e+02	1.63003107e-01
6.52500000e+02	1.62761104e-01
6.53500000e+02	1.62523776e-01
6.54500000e+02	1.62291110e-01
6.55500000e+02	1.62063104e-01
6.56500000e+02	1.61839768e-01
6.57500000e+02	1.61621092e-01
6.58500000e+02	1.61407098e-01
6.59500000e+02	1.61197784e-01
6.60500000e+02	1.60993166e-01
