# Profil de Te au temps 1.500000000000013e-11 
# simu : /Volumes/MERCURE/JOBS/Zeq1_tanh_50mic_1p5e20_B0_20ps/GNU/Te@y-c.set
# col 0 : abscisse (um)
# col 1 : Te (keV)
5.00000000e-01	9.89446422e-01
1.50000000e+00	9.89444619e-01
2.50000000e+00	9.89441061e-01
3.50000000e+00	9.89435721e-01
4.50000000e+00	9.89428591e-01
5.50000000e+00	9.89419680e-01
6.50000000e+00	9.89408988e-01
7.50000000e+00	9.89396515e-01
8.50000000e+00	9.89382263e-01
9.50000000e+00	9.89366233e-01
1.05000000e+01	9.89348424e-01
1.15000000e+01	9.89328839e-01
1.25000000e+01	9.89307479e-01
1.35000000e+01	9.89284344e-01
1.45000000e+01	9.89259437e-01
1.55000000e+01	9.89232758e-01
1.65000000e+01	9.89204310e-01
1.75000000e+01	9.89174094e-01
1.85000000e+01	9.89142112e-01
1.95000000e+01	9.89108365e-01
2.05000000e+01	9.89072856e-01
2.15000000e+01	9.89035588e-01
2.25000000e+01	9.88996561e-01
2.35000000e+01	9.88955779e-01
2.45000000e+01	9.88913243e-01
2.55000000e+01	9.88868957e-01
2.65000000e+01	9.88822923e-01
2.75000000e+01	9.88775144e-01
2.85000000e+01	9.88725622e-01
2.95000000e+01	9.88674360e-01
3.05000000e+01	9.88621361e-01
3.15000000e+01	9.88566629e-01
3.25000000e+01	9.88510166e-01
3.35000000e+01	9.88451976e-01
3.45000000e+01	9.88392062e-01
3.55000000e+01	9.88330427e-01
3.65000000e+01	9.88267075e-01
3.75000000e+01	9.88202009e-01
3.85000000e+01	9.88135234e-01
3.95000000e+01	9.88066752e-01
4.05000000e+01	9.87996568e-01
4.15000000e+01	9.87924685e-01
4.25000000e+01	9.87851108e-01
4.35000000e+01	9.87775840e-01
4.45000000e+01	9.87698885e-01
4.55000000e+01	9.87620248e-01
4.65000000e+01	9.87539933e-01
4.75000000e+01	9.87457944e-01
4.85000000e+01	9.87374285e-01
4.95000000e+01	9.87288961e-01
5.05000000e+01	9.87201977e-01
5.15000000e+01	9.87113336e-01
5.25000000e+01	9.87023044e-01
5.35000000e+01	9.86931104e-01
5.45000000e+01	9.86837522e-01
5.55000000e+01	9.86742303e-01
5.65000000e+01	9.86645450e-01
5.75000000e+01	9.86546970e-01
5.85000000e+01	9.86446866e-01
5.95000000e+01	9.86345144e-01
6.05000000e+01	9.86241808e-01
6.15000000e+01	9.86136863e-01
6.25000000e+01	9.86030315e-01
6.35000000e+01	9.85922169e-01
6.45000000e+01	9.85812429e-01
6.55000000e+01	9.85701100e-01
6.65000000e+01	9.85588188e-01
6.75000000e+01	9.85473697e-01
6.85000000e+01	9.85357634e-01
6.95000000e+01	9.85240002e-01
7.05000000e+01	9.85120807e-01
7.15000000e+01	9.85000054e-01
7.25000000e+01	9.84877748e-01
7.35000000e+01	9.84753895e-01
7.45000000e+01	9.84628500e-01
7.55000000e+01	9.84501567e-01
7.65000000e+01	9.84373102e-01
7.75000000e+01	9.84243110e-01
7.85000000e+01	9.84111596e-01
7.95000000e+01	9.83978565e-01
8.05000000e+01	9.83844022e-01
8.15000000e+01	9.83707973e-01
8.25000000e+01	9.83570422e-01
8.35000000e+01	9.83431374e-01
8.45000000e+01	9.83290835e-01
8.55000000e+01	9.83148809e-01
8.65000000e+01	9.83005301e-01
8.75000000e+01	9.82860316e-01
8.85000000e+01	9.82713858e-01
8.95000000e+01	9.82565934e-01
9.05000000e+01	9.82416547e-01
9.15000000e+01	9.82265702e-01
9.25000000e+01	9.82113403e-01
9.35000000e+01	9.81959656e-01
9.45000000e+01	9.81804465e-01
9.55000000e+01	9.81647833e-01
9.65000000e+01	9.81489767e-01
9.75000000e+01	9.81330269e-01
9.85000000e+01	9.81169344e-01
9.95000000e+01	9.81006997e-01
1.00500000e+02	9.80843231e-01
1.01500000e+02	9.80678050e-01
1.02500000e+02	9.80511458e-01
1.03500000e+02	9.80343460e-01
1.04500000e+02	9.80174058e-01
1.05500000e+02	9.80003256e-01
1.06500000e+02	9.79831058e-01
1.07500000e+02	9.79657467e-01
1.08500000e+02	9.79482487e-01
1.09500000e+02	9.79306121e-01
1.10500000e+02	9.79128371e-01
1.11500000e+02	9.78949240e-01
1.12500000e+02	9.78768733e-01
1.13500000e+02	9.78586850e-01
1.14500000e+02	9.78403595e-01
1.15500000e+02	9.78218970e-01
1.16500000e+02	9.78032978e-01
1.17500000e+02	9.77845620e-01
1.18500000e+02	9.77656899e-01
1.19500000e+02	9.77466815e-01
1.20500000e+02	9.77275372e-01
1.21500000e+02	9.77082571e-01
1.22500000e+02	9.76888412e-01
1.23500000e+02	9.76692898e-01
1.24500000e+02	9.76496028e-01
1.25500000e+02	9.76297805e-01
1.26500000e+02	9.76098228e-01
1.27500000e+02	9.75897298e-01
1.28500000e+02	9.75695016e-01
1.29500000e+02	9.75491381e-01
1.30500000e+02	9.75286394e-01
1.31500000e+02	9.75080054e-01
1.32500000e+02	9.74872361e-01
1.33500000e+02	9.74663313e-01
1.34500000e+02	9.74452911e-01
1.35500000e+02	9.74241153e-01
1.36500000e+02	9.74028037e-01
1.37500000e+02	9.73813563e-01
1.38500000e+02	9.73597728e-01
1.39500000e+02	9.73380530e-01
1.40500000e+02	9.73161968e-01
1.41500000e+02	9.72942038e-01
1.42500000e+02	9.72720739e-01
1.43500000e+02	9.72498066e-01
1.44500000e+02	9.72274017e-01
1.45500000e+02	9.72048588e-01
1.46500000e+02	9.71821776e-01
1.47500000e+02	9.71593577e-01
1.48500000e+02	9.71363986e-01
1.49500000e+02	9.71132999e-01
1.50500000e+02	9.70900611e-01
1.51500000e+02	9.70666817e-01
1.52500000e+02	9.70431611e-01
1.53500000e+02	9.70194989e-01
1.54500000e+02	9.69956944e-01
1.55500000e+02	9.69717469e-01
1.56500000e+02	9.69476559e-01
1.57500000e+02	9.69234206e-01
1.58500000e+02	9.68990404e-01
1.59500000e+02	9.68745144e-01
1.60500000e+02	9.68498420e-01
1.61500000e+02	9.68250222e-01
1.62500000e+02	9.68000543e-01
1.63500000e+02	9.67749375e-01
1.64500000e+02	9.67496706e-01
1.65500000e+02	9.67242530e-01
1.66500000e+02	9.66986835e-01
1.67500000e+02	9.66729612e-01
1.68500000e+02	9.66470850e-01
1.69500000e+02	9.66210539e-01
1.70500000e+02	9.65948666e-01
1.71500000e+02	9.65685222e-01
1.72500000e+02	9.65420194e-01
1.73500000e+02	9.65153570e-01
1.74500000e+02	9.64885336e-01
1.75500000e+02	9.64615482e-01
1.76500000e+02	9.64343992e-01
1.77500000e+02	9.64070853e-01
1.78500000e+02	9.63796052e-01
1.79500000e+02	9.63519573e-01
1.80500000e+02	9.63241403e-01
1.81500000e+02	9.62961525e-01
1.82500000e+02	9.62679924e-01
1.83500000e+02	9.62396584e-01
1.84500000e+02	9.62111488e-01
1.85500000e+02	9.61824621e-01
1.86500000e+02	9.61535963e-01
1.87500000e+02	9.61245499e-01
1.88500000e+02	9.60953209e-01
1.89500000e+02	9.60659075e-01
1.90500000e+02	9.60363079e-01
1.91500000e+02	9.60065200e-01
1.92500000e+02	9.59765419e-01
1.93500000e+02	9.59463717e-01
1.94500000e+02	9.59160071e-01
1.95500000e+02	9.58854462e-01
1.96500000e+02	9.58546868e-01
1.97500000e+02	9.58237266e-01
1.98500000e+02	9.57925635e-01
1.99500000e+02	9.57611951e-01
2.00500000e+02	9.57296191e-01
2.01500000e+02	9.56978332e-01
2.02500000e+02	9.56658348e-01
2.03500000e+02	9.56336217e-01
2.04500000e+02	9.56011912e-01
2.05500000e+02	9.55685407e-01
2.06500000e+02	9.55356678e-01
2.07500000e+02	9.55025697e-01
2.08500000e+02	9.54692437e-01
2.09500000e+02	9.54356871e-01
2.10500000e+02	9.54018970e-01
2.11500000e+02	9.53678708e-01
2.12500000e+02	9.53336053e-01
2.13500000e+02	9.52990978e-01
2.14500000e+02	9.52643453e-01
2.15500000e+02	9.52293446e-01
2.16500000e+02	9.51940928e-01
2.17500000e+02	9.51585866e-01
2.18500000e+02	9.51228229e-01
2.19500000e+02	9.50867985e-01
2.20500000e+02	9.50505101e-01
2.21500000e+02	9.50139544e-01
2.22500000e+02	9.49771279e-01
2.23500000e+02	9.49400273e-01
2.24500000e+02	9.49026490e-01
2.25500000e+02	9.48649896e-01
2.26500000e+02	9.48270454e-01
2.27500000e+02	9.47888128e-01
2.28500000e+02	9.47502882e-01
2.29500000e+02	9.47114677e-01
2.30500000e+02	9.46723476e-01
2.31500000e+02	9.46329240e-01
2.32500000e+02	9.45931930e-01
2.33500000e+02	9.45531508e-01
2.34500000e+02	9.45127932e-01
2.35500000e+02	9.44721163e-01
2.36500000e+02	9.44311158e-01
2.37500000e+02	9.43897877e-01
2.38500000e+02	9.43481278e-01
2.39500000e+02	9.43061317e-01
2.40500000e+02	9.42637950e-01
2.41500000e+02	9.42211135e-01
2.42500000e+02	9.41780827e-01
2.43500000e+02	9.41346981e-01
2.44500000e+02	9.40909551e-01
2.45500000e+02	9.40468491e-01
2.46500000e+02	9.40023755e-01
2.47500000e+02	9.39575295e-01
2.48500000e+02	9.39123063e-01
2.49500000e+02	9.38667011e-01
2.50500000e+02	9.38207089e-01
2.51500000e+02	9.37743249e-01
2.52500000e+02	9.37275440e-01
2.53500000e+02	9.36803611e-01
2.54500000e+02	9.36327711e-01
2.55500000e+02	9.35847687e-01
2.56500000e+02	9.35363488e-01
2.57500000e+02	9.34875059e-01
2.58500000e+02	9.34382346e-01
2.59500000e+02	9.33885296e-01
2.60500000e+02	9.33383853e-01
2.61500000e+02	9.32877961e-01
2.62500000e+02	9.32367564e-01
2.63500000e+02	9.31852604e-01
2.64500000e+02	9.31333024e-01
2.65500000e+02	9.30808765e-01
2.66500000e+02	9.30279768e-01
2.67500000e+02	9.29745974e-01
2.68500000e+02	9.29207321e-01
2.69500000e+02	9.28663749e-01
2.70500000e+02	9.28115195e-01
2.71500000e+02	9.27561597e-01
2.72500000e+02	9.27002892e-01
2.73500000e+02	9.26439016e-01
2.74500000e+02	9.25869904e-01
2.75500000e+02	9.25295490e-01
2.76500000e+02	9.24715709e-01
2.77500000e+02	9.24130493e-01
2.78500000e+02	9.23539774e-01
2.79500000e+02	9.22943484e-01
2.80500000e+02	9.22341555e-01
2.81500000e+02	9.21733914e-01
2.82500000e+02	9.21120493e-01
2.83500000e+02	9.20501219e-01
2.84500000e+02	9.19876020e-01
2.85500000e+02	9.19244822e-01
2.86500000e+02	9.18607551e-01
2.87500000e+02	9.17964133e-01
2.88500000e+02	9.17314491e-01
2.89500000e+02	9.16658550e-01
2.90500000e+02	9.15996231e-01
2.91500000e+02	9.15327456e-01
2.92500000e+02	9.14652146e-01
2.93500000e+02	9.13970222e-01
2.94500000e+02	9.13281601e-01
2.95500000e+02	9.12586203e-01
2.96500000e+02	9.11883944e-01
2.97500000e+02	9.11174740e-01
2.98500000e+02	9.10458508e-01
2.99500000e+02	9.09735162e-01
3.00500000e+02	9.09004614e-01
3.01500000e+02	9.08266778e-01
3.02500000e+02	9.07521566e-01
3.03500000e+02	9.06768888e-01
3.04500000e+02	9.06008653e-01
3.05500000e+02	9.05240771e-01
3.06500000e+02	9.04465149e-01
3.07500000e+02	9.03681694e-01
3.08500000e+02	9.02890311e-01
3.09500000e+02	9.02090906e-01
3.10500000e+02	9.01283382e-01
3.11500000e+02	9.00467642e-01
3.12500000e+02	8.99643587e-01
3.13500000e+02	8.98811118e-01
3.14500000e+02	8.97970135e-01
3.15500000e+02	8.97120536e-01
3.16500000e+02	8.96262218e-01
3.17500000e+02	8.95395078e-01
3.18500000e+02	8.94519012e-01
3.19500000e+02	8.93633913e-01
3.20500000e+02	8.92739676e-01
3.21500000e+02	8.91836191e-01
3.22500000e+02	8.90923350e-01
3.23500000e+02	8.90001043e-01
3.24500000e+02	8.89069159e-01
3.25500000e+02	8.88127585e-01
3.26500000e+02	8.87176209e-01
3.27500000e+02	8.86214915e-01
3.28500000e+02	8.85243589e-01
3.29500000e+02	8.84262114e-01
3.30500000e+02	8.83270372e-01
3.31500000e+02	8.82268245e-01
3.32500000e+02	8.81255611e-01
3.33500000e+02	8.80232352e-01
3.34500000e+02	8.79198344e-01
3.35500000e+02	8.78153464e-01
3.36500000e+02	8.77097588e-01
3.37500000e+02	8.76030592e-01
3.38500000e+02	8.74952348e-01
3.39500000e+02	8.73862729e-01
3.40500000e+02	8.72761607e-01
3.41500000e+02	8.71648852e-01
3.42500000e+02	8.70524333e-01
3.43500000e+02	8.69387920e-01
3.44500000e+02	8.68239479e-01
3.45500000e+02	8.67078878e-01
3.46500000e+02	8.65905980e-01
3.47500000e+02	8.64720651e-01
3.48500000e+02	8.63522755e-01
3.49500000e+02	8.62312153e-01
3.50500000e+02	8.61088707e-01
3.51500000e+02	8.59852279e-01
3.52500000e+02	8.58602727e-01
3.53500000e+02	8.57339910e-01
3.54500000e+02	8.56063687e-01
3.55500000e+02	8.54773915e-01
3.56500000e+02	8.53470450e-01
3.57500000e+02	8.52153148e-01
3.58500000e+02	8.50821863e-01
3.59500000e+02	8.49476449e-01
3.60500000e+02	8.48116761e-01
3.61500000e+02	8.46742650e-01
3.62500000e+02	8.45353969e-01
3.63500000e+02	8.43950569e-01
3.64500000e+02	8.42532300e-01
3.65500000e+02	8.41099014e-01
3.66500000e+02	8.39650560e-01
3.67500000e+02	8.38186786e-01
3.68500000e+02	8.36707543e-01
3.69500000e+02	8.35212678e-01
3.70500000e+02	8.33702040e-01
3.71500000e+02	8.32175476e-01
3.72500000e+02	8.30632833e-01
3.73500000e+02	8.29073960e-01
3.74500000e+02	8.27498703e-01
3.75500000e+02	8.25906909e-01
3.76500000e+02	8.24298425e-01
3.77500000e+02	8.22673098e-01
3.78500000e+02	8.21030775e-01
3.79500000e+02	8.19371302e-01
3.80500000e+02	8.17694528e-01
3.81500000e+02	8.16000299e-01
3.82500000e+02	8.14288462e-01
3.83500000e+02	8.12558867e-01
3.84500000e+02	8.10811361e-01
3.85500000e+02	8.09045792e-01
3.86500000e+02	8.07262011e-01
3.87500000e+02	8.05459867e-01
3.88500000e+02	8.03639210e-01
3.89500000e+02	8.01799892e-01
3.90500000e+02	7.99941764e-01
3.91500000e+02	7.98064680e-01
3.92500000e+02	7.96168494e-01
3.93500000e+02	7.94253060e-01
3.94500000e+02	7.92318233e-01
3.95500000e+02	7.90363872e-01
3.96500000e+02	7.88389834e-01
3.97500000e+02	7.86395979e-01
3.98500000e+02	7.84382169e-01
3.99500000e+02	7.82348265e-01
4.00500000e+02	7.80294131e-01
4.01500000e+02	7.78219634e-01
4.02500000e+02	7.76124641e-01
4.03500000e+02	7.74009021e-01
4.04500000e+02	7.71872645e-01
4.05500000e+02	7.69715387e-01
4.06500000e+02	7.67537122e-01
4.07500000e+02	7.65337727e-01
4.08500000e+02	7.63117082e-01
4.09500000e+02	7.60875069e-01
4.10500000e+02	7.58611572e-01
4.11500000e+02	7.56326480e-01
4.12500000e+02	7.54019680e-01
4.13500000e+02	7.51691066e-01
4.14500000e+02	7.49340533e-01
4.15500000e+02	7.46967979e-01
4.16500000e+02	7.44573305e-01
4.17500000e+02	7.42156415e-01
4.18500000e+02	7.39717216e-01
4.19500000e+02	7.37255619e-01
4.20500000e+02	7.34771538e-01
4.21500000e+02	7.32264891e-01
4.22500000e+02	7.29735598e-01
4.23500000e+02	7.27183584e-01
4.24500000e+02	7.24608777e-01
4.25500000e+02	7.22011110e-01
4.26500000e+02	7.19390518e-01
4.27500000e+02	7.16746942e-01
4.28500000e+02	7.14080325e-01
4.29500000e+02	7.11390617e-01
4.30500000e+02	7.08677769e-01
4.31500000e+02	7.05941740e-01
4.32500000e+02	7.03182490e-01
4.33500000e+02	7.00399987e-01
4.34500000e+02	6.97594200e-01
4.35500000e+02	6.94765105e-01
4.36500000e+02	6.91912684e-01
4.37500000e+02	6.89036921e-01
4.38500000e+02	6.86137808e-01
4.39500000e+02	6.83215340e-01
4.40500000e+02	6.80269518e-01
4.41500000e+02	6.77300350e-01
4.42500000e+02	6.74307848e-01
4.43500000e+02	6.71292029e-01
4.44500000e+02	6.68252917e-01
4.45500000e+02	6.65190542e-01
4.46500000e+02	6.62104940e-01
4.47500000e+02	6.58996152e-01
4.48500000e+02	6.55864227e-01
4.49500000e+02	6.52709220e-01
4.50500000e+02	6.49531191e-01
4.51500000e+02	6.46330210e-01
4.52500000e+02	6.43106352e-01
4.53500000e+02	6.39859698e-01
4.54500000e+02	6.36590339e-01
4.55500000e+02	6.33298373e-01
4.56500000e+02	6.29983903e-01
4.57500000e+02	6.26647043e-01
4.58500000e+02	6.23287915e-01
4.59500000e+02	6.19906648e-01
4.60500000e+02	6.16503380e-01
4.61500000e+02	6.13078260e-01
4.62500000e+02	6.09631444e-01
4.63500000e+02	6.06163097e-01
4.64500000e+02	6.02673397e-01
4.65500000e+02	5.99162529e-01
4.66500000e+02	5.95630691e-01
4.67500000e+02	5.92078090e-01
4.68500000e+02	5.88504945e-01
4.69500000e+02	5.84911488e-01
4.70500000e+02	5.81297961e-01
4.71500000e+02	5.77664619e-01
4.72500000e+02	5.74011731e-01
4.73500000e+02	5.70339580e-01
4.74500000e+02	5.66648460e-01
4.75500000e+02	5.62938682e-01
4.76500000e+02	5.59210572e-01
4.77500000e+02	5.55464470e-01
4.78500000e+02	5.51700734e-01
4.79500000e+02	5.47919737e-01
4.80500000e+02	5.44121870e-01
4.81500000e+02	5.40307542e-01
4.82500000e+02	5.36477180e-01
4.83500000e+02	5.32631232e-01
4.84500000e+02	5.28770163e-01
4.85500000e+02	5.24894462e-01
4.86500000e+02	5.21004634e-01
4.87500000e+02	5.17101212e-01
4.88500000e+02	5.13184748e-01
4.89500000e+02	5.09255817e-01
4.90500000e+02	5.05315019e-01
4.91500000e+02	5.01362979e-01
4.92500000e+02	4.97400346e-01
4.93500000e+02	4.93427796e-01
4.94500000e+02	4.89446031e-01
4.95500000e+02	4.85455779e-01
4.96500000e+02	4.81457799e-01
4.97500000e+02	4.77452874e-01
4.98500000e+02	4.73441818e-01
4.99500000e+02	4.69425475e-01
5.00500000e+02	4.65404717e-01
5.01500000e+02	4.61380445e-01
5.02500000e+02	4.57353592e-01
5.03500000e+02	4.53325121e-01
5.04500000e+02	4.49296024e-01
5.05500000e+02	4.45267324e-01
5.06500000e+02	4.41240073e-01
5.07500000e+02	4.37215356e-01
5.08500000e+02	4.33194283e-01
5.09500000e+02	4.29177997e-01
5.10500000e+02	4.25167667e-01
5.11500000e+02	4.21164489e-01
5.12500000e+02	4.17169687e-01
5.13500000e+02	4.13184510e-01
5.14500000e+02	4.09210230e-01
5.15500000e+02	4.05248144e-01
5.16500000e+02	4.01299566e-01
5.17500000e+02	3.97365832e-01
5.18500000e+02	3.93448295e-01
5.19500000e+02	3.89548322e-01
5.20500000e+02	3.85667291e-01
5.21500000e+02	3.81806592e-01
5.22500000e+02	3.77967621e-01
5.23500000e+02	3.74151778e-01
5.24500000e+02	3.70360464e-01
5.25500000e+02	3.66595077e-01
5.26500000e+02	3.62857011e-01
5.27500000e+02	3.59147648e-01
5.28500000e+02	3.55468361e-01
5.29500000e+02	3.51820502e-01
5.30500000e+02	3.48205407e-01
5.31500000e+02	3.44624383e-01
5.32500000e+02	3.41078714e-01
5.33500000e+02	3.37569648e-01
5.34500000e+02	3.34098401e-01
5.35500000e+02	3.30666148e-01
5.36500000e+02	3.27274022e-01
5.37500000e+02	3.23923108e-01
5.38500000e+02	3.20614444e-01
5.39500000e+02	3.17349013e-01
5.40500000e+02	3.14127745e-01
5.41500000e+02	3.10951510e-01
5.42500000e+02	3.07821119e-01
5.43500000e+02	3.04737318e-01
5.44500000e+02	3.01700791e-01
5.45500000e+02	2.98712155e-01
5.46500000e+02	2.95771958e-01
5.47500000e+02	2.92880683e-01
5.48500000e+02	2.90038743e-01
5.49500000e+02	2.87246481e-01
5.50500000e+02	2.84504173e-01
5.51500000e+02	2.81812026e-01
5.52500000e+02	2.79170179e-01
5.53500000e+02	2.76578706e-01
5.54500000e+02	2.74037613e-01
5.55500000e+02	2.71546846e-01
5.56500000e+02	2.69106287e-01
5.57500000e+02	2.66715758e-01
5.58500000e+02	2.64375025e-01
5.59500000e+02	2.62083798e-01
5.60500000e+02	2.59841737e-01
5.61500000e+02	2.57648450e-01
5.62500000e+02	2.55503499e-01
5.63500000e+02	2.53406402e-01
5.64500000e+02	2.51356637e-01
5.65500000e+02	2.49353644e-01
5.66500000e+02	2.47396828e-01
5.67500000e+02	2.45485562e-01
5.68500000e+02	2.43619193e-01
5.69500000e+02	2.41797037e-01
5.70500000e+02	2.40018393e-01
5.71500000e+02	2.38282535e-01
5.72500000e+02	2.36588724e-01
5.73500000e+02	2.34936202e-01
5.74500000e+02	2.33324204e-01
5.75500000e+02	2.31751950e-01
5.76500000e+02	2.30218656e-01
5.77500000e+02	2.28723532e-01
5.78500000e+02	2.27265784e-01
5.79500000e+02	2.25844618e-01
5.80500000e+02	2.24459239e-01
5.81500000e+02	2.23108855e-01
5.82500000e+02	2.21792679e-01
5.83500000e+02	2.20509926e-01
5.84500000e+02	2.19259819e-01
5.85500000e+02	2.18041590e-01
5.86500000e+02	2.16854478e-01
5.87500000e+02	2.15697731e-01
5.88500000e+02	2.14570610e-01
5.89500000e+02	2.13472383e-01
5.90500000e+02	2.12402334e-01
5.91500000e+02	2.11359756e-01
5.92500000e+02	2.10343959e-01
5.93500000e+02	2.09354261e-01
5.94500000e+02	2.08389998e-01
5.95500000e+02	2.07450518e-01
5.96500000e+02	2.06535184e-01
5.97500000e+02	2.05643370e-01
5.98500000e+02	2.04774469e-01
5.99500000e+02	2.03927886e-01
6.00500000e+02	2.03103040e-01
6.01500000e+02	2.02299365e-01
6.02500000e+02	2.01516309e-01
6.03500000e+02	2.00753335e-01
6.04500000e+02	2.00009918e-01
6.05500000e+02	1.99285549e-01
6.06500000e+02	1.98579733e-01
6.07500000e+02	1.97891985e-01
6.08500000e+02	1.97221837e-01
6.09500000e+02	1.96568833e-01
6.10500000e+02	1.95932529e-01
6.11500000e+02	1.95312493e-01
6.12500000e+02	1.94708308e-01
6.13500000e+02	1.94119566e-01
6.14500000e+02	1.93545873e-01
6.15500000e+02	1.92986845e-01
6.16500000e+02	1.92442109e-01
6.17500000e+02	1.91911305e-01
6.18500000e+02	1.91394081e-01
6.19500000e+02	1.90890097e-01
6.20500000e+02	1.90399023e-01
6.21500000e+02	1.89920537e-01
6.22500000e+02	1.89454330e-01
6.23500000e+02	1.89000098e-01
6.24500000e+02	1.88557550e-01
6.25500000e+02	1.88126400e-01
6.26500000e+02	1.87706374e-01
6.27500000e+02	1.87297203e-01
6.28500000e+02	1.86898628e-01
6.29500000e+02	1.86510397e-01
6.30500000e+02	1.86132266e-01
6.31500000e+02	1.85763997e-01
6.32500000e+02	1.85405361e-01
6.33500000e+02	1.85056133e-01
6.34500000e+02	1.84716098e-01
6.35500000e+02	1.84385044e-01
6.36500000e+02	1.84062768e-01
6.37500000e+02	1.83749071e-01
6.38500000e+02	1.83443760e-01
6.39500000e+02	1.83146649e-01
6.40500000e+02	1.82857557e-01
6.41500000e+02	1.82576307e-01
6.42500000e+02	1.82302728e-01
6.43500000e+02	1.82036654e-01
6.44500000e+02	1.81777924e-01
6.45500000e+02	1.81526381e-01
6.46500000e+02	1.81281873e-01
6.47500000e+02	1.81044251e-01
6.48500000e+02	1.80813373e-01
6.49500000e+02	1.80589099e-01
6.50500000e+02	1.80371292e-01
6.51500000e+02	1.80159823e-01
6.52500000e+02	1.79954562e-01
6.53500000e+02	1.79755386e-01
6.54500000e+02	1.79562174e-01
6.55500000e+02	1.79374809e-01
6.56500000e+02	1.79193176e-01
6.57500000e+02	1.79017165e-01
6.58500000e+02	1.78846670e-01
6.59500000e+02	1.78681587e-01
6.60500000e+02	1.78521813e-01
