# Profil de Te au temps 9.000000000000108e-12 
# simu : /Volumes/MERCURE/JOBS/Zeq1_tanh_50mic_1p5e20_B0_20ps/GNU/Te@y-c.set
# col 0 : abscisse (um)
# col 1 : Te (keV)
5.00000000e-01	9.99896617e-01
1.50000000e+00	9.99896476e-01
2.50000000e+00	9.99896203e-01
3.50000000e+00	9.99895792e-01
4.50000000e+00	9.99895242e-01
5.50000000e+00	9.99894553e-01
6.50000000e+00	9.99893724e-01
7.50000000e+00	9.99892755e-01
8.50000000e+00	9.99891644e-01
9.50000000e+00	9.99890392e-01
1.05000000e+01	9.99888996e-01
1.15000000e+01	9.99887454e-01
1.25000000e+01	9.99885766e-01
1.35000000e+01	9.99883930e-01
1.45000000e+01	9.99881944e-01
1.55000000e+01	9.99879805e-01
1.65000000e+01	9.99877512e-01
1.75000000e+01	9.99875063e-01
1.85000000e+01	9.99872454e-01
1.95000000e+01	9.99869684e-01
2.05000000e+01	9.99866749e-01
2.15000000e+01	9.99863647e-01
2.25000000e+01	9.99860375e-01
2.35000000e+01	9.99856929e-01
2.45000000e+01	9.99853306e-01
2.55000000e+01	9.99849502e-01
2.65000000e+01	9.99845514e-01
2.75000000e+01	9.99841337e-01
2.85000000e+01	9.99836969e-01
2.95000000e+01	9.99832404e-01
3.05000000e+01	9.99827638e-01
3.15000000e+01	9.99822667e-01
3.25000000e+01	9.99817486e-01
3.35000000e+01	9.99812090e-01
3.45000000e+01	9.99806474e-01
3.55000000e+01	9.99800633e-01
3.65000000e+01	9.99794561e-01
3.75000000e+01	9.99788252e-01
3.85000000e+01	9.99781702e-01
3.95000000e+01	9.99774903e-01
4.05000000e+01	9.99767851e-01
4.15000000e+01	9.99760537e-01
4.25000000e+01	9.99752957e-01
4.35000000e+01	9.99745102e-01
4.45000000e+01	9.99736967e-01
4.55000000e+01	9.99728543e-01
4.65000000e+01	9.99719824e-01
4.75000000e+01	9.99710803e-01
4.85000000e+01	9.99701470e-01
4.95000000e+01	9.99691819e-01
5.05000000e+01	9.99681841e-01
5.15000000e+01	9.99671527e-01
5.25000000e+01	9.99660870e-01
5.35000000e+01	9.99649860e-01
5.45000000e+01	9.99638488e-01
5.55000000e+01	9.99626745e-01
5.65000000e+01	9.99614621e-01
5.75000000e+01	9.99602107e-01
5.85000000e+01	9.99589193e-01
5.95000000e+01	9.99575868e-01
6.05000000e+01	9.99562122e-01
6.15000000e+01	9.99547945e-01
6.25000000e+01	9.99533325e-01
6.35000000e+01	9.99518251e-01
6.45000000e+01	9.99502712e-01
6.55000000e+01	9.99486697e-01
6.65000000e+01	9.99470192e-01
6.75000000e+01	9.99453187e-01
6.85000000e+01	9.99435669e-01
6.95000000e+01	9.99417625e-01
7.05000000e+01	9.99399042e-01
7.15000000e+01	9.99379908e-01
7.25000000e+01	9.99360208e-01
7.35000000e+01	9.99339929e-01
7.45000000e+01	9.99319057e-01
7.55000000e+01	9.99297578e-01
7.65000000e+01	9.99275478e-01
7.75000000e+01	9.99252741e-01
7.85000000e+01	9.99229354e-01
7.95000000e+01	9.99205299e-01
8.05000000e+01	9.99180563e-01
8.15000000e+01	9.99155129e-01
8.25000000e+01	9.99128982e-01
8.35000000e+01	9.99102104e-01
8.45000000e+01	9.99074479e-01
8.55000000e+01	9.99046091e-01
8.65000000e+01	9.99016923e-01
8.75000000e+01	9.98986956e-01
8.85000000e+01	9.98956174e-01
8.95000000e+01	9.98924558e-01
9.05000000e+01	9.98892091e-01
9.15000000e+01	9.98858753e-01
9.25000000e+01	9.98824527e-01
9.35000000e+01	9.98789392e-01
9.45000000e+01	9.98753331e-01
9.55000000e+01	9.98716322e-01
9.65000000e+01	9.98678348e-01
9.75000000e+01	9.98639387e-01
9.85000000e+01	9.98599419e-01
9.95000000e+01	9.98558424e-01
1.00500000e+02	9.98516382e-01
1.01500000e+02	9.98473270e-01
1.02500000e+02	9.98429068e-01
1.03500000e+02	9.98383754e-01
1.04500000e+02	9.98337306e-01
1.05500000e+02	9.98289703e-01
1.06500000e+02	9.98240922e-01
1.07500000e+02	9.98190940e-01
1.08500000e+02	9.98139736e-01
1.09500000e+02	9.98087285e-01
1.10500000e+02	9.98033565e-01
1.11500000e+02	9.97978553e-01
1.12500000e+02	9.97922225e-01
1.13500000e+02	9.97864556e-01
1.14500000e+02	9.97805524e-01
1.15500000e+02	9.97745103e-01
1.16500000e+02	9.97683270e-01
1.17500000e+02	9.97619999e-01
1.18500000e+02	9.97555266e-01
1.19500000e+02	9.97489047e-01
1.20500000e+02	9.97421315e-01
1.21500000e+02	9.97352045e-01
1.22500000e+02	9.97281213e-01
1.23500000e+02	9.97208792e-01
1.24500000e+02	9.97134756e-01
1.25500000e+02	9.97059080e-01
1.26500000e+02	9.96981738e-01
1.27500000e+02	9.96902703e-01
1.28500000e+02	9.96821949e-01
1.29500000e+02	9.96739449e-01
1.30500000e+02	9.96655177e-01
1.31500000e+02	9.96569106e-01
1.32500000e+02	9.96481210e-01
1.33500000e+02	9.96391461e-01
1.34500000e+02	9.96299833e-01
1.35500000e+02	9.96206298e-01
1.36500000e+02	9.96110829e-01
1.37500000e+02	9.96013400e-01
1.38500000e+02	9.95913982e-01
1.39500000e+02	9.95812550e-01
1.40500000e+02	9.95709074e-01
1.41500000e+02	9.95603529e-01
1.42500000e+02	9.95495886e-01
1.43500000e+02	9.95386118e-01
1.44500000e+02	9.95274198e-01
1.45500000e+02	9.95160099e-01
1.46500000e+02	9.95043792e-01
1.47500000e+02	9.94925251e-01
1.48500000e+02	9.94804449e-01
1.49500000e+02	9.94681357e-01
1.50500000e+02	9.94555950e-01
1.51500000e+02	9.94428198e-01
1.52500000e+02	9.94298076e-01
1.53500000e+02	9.94165557e-01
1.54500000e+02	9.94030612e-01
1.55500000e+02	9.93893216e-01
1.56500000e+02	9.93753342e-01
1.57500000e+02	9.93610962e-01
1.58500000e+02	9.93466050e-01
1.59500000e+02	9.93318580e-01
1.60500000e+02	9.93168525e-01
1.61500000e+02	9.93015859e-01
1.62500000e+02	9.92860555e-01
1.63500000e+02	9.92702589e-01
1.64500000e+02	9.92541933e-01
1.65500000e+02	9.92378563e-01
1.66500000e+02	9.92212453e-01
1.67500000e+02	9.92043577e-01
1.68500000e+02	9.91871910e-01
1.69500000e+02	9.91697428e-01
1.70500000e+02	9.91520106e-01
1.71500000e+02	9.91339918e-01
1.72500000e+02	9.91156842e-01
1.73500000e+02	9.90970852e-01
1.74500000e+02	9.90781924e-01
1.75500000e+02	9.90590036e-01
1.76500000e+02	9.90395163e-01
1.77500000e+02	9.90197282e-01
1.78500000e+02	9.89996371e-01
1.79500000e+02	9.89792406e-01
1.80500000e+02	9.89585365e-01
1.81500000e+02	9.89375226e-01
1.82500000e+02	9.89161966e-01
1.83500000e+02	9.88945565e-01
1.84500000e+02	9.88726000e-01
1.85500000e+02	9.88503250e-01
1.86500000e+02	9.88277295e-01
1.87500000e+02	9.88048113e-01
1.88500000e+02	9.87815685e-01
1.89500000e+02	9.87579990e-01
1.90500000e+02	9.87341008e-01
1.91500000e+02	9.87098720e-01
1.92500000e+02	9.86853106e-01
1.93500000e+02	9.86604148e-01
1.94500000e+02	9.86351825e-01
1.95500000e+02	9.86096121e-01
1.96500000e+02	9.85837017e-01
1.97500000e+02	9.85574495e-01
1.98500000e+02	9.85308536e-01
1.99500000e+02	9.85039125e-01
2.00500000e+02	9.84766243e-01
2.01500000e+02	9.84489873e-01
2.02500000e+02	9.84210000e-01
2.03500000e+02	9.83926606e-01
2.04500000e+02	9.83639675e-01
2.05500000e+02	9.83349192e-01
2.06500000e+02	9.83055141e-01
2.07500000e+02	9.82757506e-01
2.08500000e+02	9.82456272e-01
2.09500000e+02	9.82151424e-01
2.10500000e+02	9.81842948e-01
2.11500000e+02	9.81530828e-01
2.12500000e+02	9.81215050e-01
2.13500000e+02	9.80895601e-01
2.14500000e+02	9.80572465e-01
2.15500000e+02	9.80245629e-01
2.16500000e+02	9.79915080e-01
2.17500000e+02	9.79580803e-01
2.18500000e+02	9.79242785e-01
2.19500000e+02	9.78901014e-01
2.20500000e+02	9.78555474e-01
2.21500000e+02	9.78206155e-01
2.22500000e+02	9.77853041e-01
2.23500000e+02	9.77496121e-01
2.24500000e+02	9.77135381e-01
2.25500000e+02	9.76770808e-01
2.26500000e+02	9.76402390e-01
2.27500000e+02	9.76030113e-01
2.28500000e+02	9.75653965e-01
2.29500000e+02	9.75273933e-01
2.30500000e+02	9.74890003e-01
2.31500000e+02	9.74502162e-01
2.32500000e+02	9.74110398e-01
2.33500000e+02	9.73714697e-01
2.34500000e+02	9.73315045e-01
2.35500000e+02	9.72911429e-01
2.36500000e+02	9.72503836e-01
2.37500000e+02	9.72092251e-01
2.38500000e+02	9.71676660e-01
2.39500000e+02	9.71257048e-01
2.40500000e+02	9.70833402e-01
2.41500000e+02	9.70405706e-01
2.42500000e+02	9.69973945e-01
2.43500000e+02	9.69538104e-01
2.44500000e+02	9.69098165e-01
2.45500000e+02	9.68654114e-01
2.46500000e+02	9.68205933e-01
2.47500000e+02	9.67753605e-01
2.48500000e+02	9.67297112e-01
2.49500000e+02	9.66836437e-01
2.50500000e+02	9.66371560e-01
2.51500000e+02	9.65902462e-01
2.52500000e+02	9.65429124e-01
2.53500000e+02	9.64951524e-01
2.54500000e+02	9.64469642e-01
2.55500000e+02	9.63983456e-01
2.56500000e+02	9.63492943e-01
2.57500000e+02	9.62998080e-01
2.58500000e+02	9.62498843e-01
2.59500000e+02	9.61995207e-01
2.60500000e+02	9.61487147e-01
2.61500000e+02	9.60974635e-01
2.62500000e+02	9.60457644e-01
2.63500000e+02	9.59936145e-01
2.64500000e+02	9.59410110e-01
2.65500000e+02	9.58879507e-01
2.66500000e+02	9.58344304e-01
2.67500000e+02	9.57804470e-01
2.68500000e+02	9.57259969e-01
2.69500000e+02	9.56710768e-01
2.70500000e+02	9.56156829e-01
2.71500000e+02	9.55598115e-01
2.72500000e+02	9.55034588e-01
2.73500000e+02	9.54466206e-01
2.74500000e+02	9.53892929e-01
2.75500000e+02	9.53314712e-01
2.76500000e+02	9.52731513e-01
2.77500000e+02	9.52143283e-01
2.78500000e+02	9.51549977e-01
2.79500000e+02	9.50951544e-01
2.80500000e+02	9.50347935e-01
2.81500000e+02	9.49739095e-01
2.82500000e+02	9.49124971e-01
2.83500000e+02	9.48505507e-01
2.84500000e+02	9.47880645e-01
2.85500000e+02	9.47250325e-01
2.86500000e+02	9.46614485e-01
2.87500000e+02	9.45973063e-01
2.88500000e+02	9.45325991e-01
2.89500000e+02	9.44673203e-01
2.90500000e+02	9.44014628e-01
2.91500000e+02	9.43350196e-01
2.92500000e+02	9.42679831e-01
2.93500000e+02	9.42003457e-01
2.94500000e+02	9.41320996e-01
2.95500000e+02	9.40632367e-01
2.96500000e+02	9.39937487e-01
2.97500000e+02	9.39236270e-01
2.98500000e+02	9.38528627e-01
2.99500000e+02	9.37814468e-01
3.00500000e+02	9.37093701e-01
3.01500000e+02	9.36366229e-01
3.02500000e+02	9.35631954e-01
3.03500000e+02	9.34890775e-01
3.04500000e+02	9.34142588e-01
3.05500000e+02	9.33387286e-01
3.06500000e+02	9.32624761e-01
3.07500000e+02	9.31854901e-01
3.08500000e+02	9.31077589e-01
3.09500000e+02	9.30292709e-01
3.10500000e+02	9.29500140e-01
3.11500000e+02	9.28699757e-01
3.12500000e+02	9.27891434e-01
3.13500000e+02	9.27075041e-01
3.14500000e+02	9.26250445e-01
3.15500000e+02	9.25417509e-01
3.16500000e+02	9.24576094e-01
3.17500000e+02	9.23726059e-01
3.18500000e+02	9.22867256e-01
3.19500000e+02	9.21999537e-01
3.20500000e+02	9.21122749e-01
3.21500000e+02	9.20236738e-01
3.22500000e+02	9.19341343e-01
3.23500000e+02	9.18436403e-01
3.24500000e+02	9.17521751e-01
3.25500000e+02	9.16597219e-01
3.26500000e+02	9.15662634e-01
3.27500000e+02	9.14717819e-01
3.28500000e+02	9.13762595e-01
3.29500000e+02	9.12796780e-01
3.30500000e+02	9.11820186e-01
3.31500000e+02	9.10832624e-01
3.32500000e+02	9.09833899e-01
3.33500000e+02	9.08823815e-01
3.34500000e+02	9.07802171e-01
3.35500000e+02	9.06768763e-01
3.36500000e+02	9.05723382e-01
3.37500000e+02	9.04665818e-01
3.38500000e+02	9.03595856e-01
3.39500000e+02	9.02513277e-01
3.40500000e+02	9.01417859e-01
3.41500000e+02	9.00309377e-01
3.42500000e+02	8.99187601e-01
3.43500000e+02	8.98052300e-01
3.44500000e+02	8.96903236e-01
3.45500000e+02	8.95740171e-01
3.46500000e+02	8.94562862e-01
3.47500000e+02	8.93371062e-01
3.48500000e+02	8.92164521e-01
3.49500000e+02	8.90942986e-01
3.50500000e+02	8.89706201e-01
3.51500000e+02	8.88453906e-01
3.52500000e+02	8.87185838e-01
3.53500000e+02	8.85901730e-01
3.54500000e+02	8.84601313e-01
3.55500000e+02	8.83284314e-01
3.56500000e+02	8.81950458e-01
3.57500000e+02	8.80599466e-01
3.58500000e+02	8.79231056e-01
3.59500000e+02	8.77844943e-01
3.60500000e+02	8.76440840e-01
3.61500000e+02	8.75018457e-01
3.62500000e+02	8.73577500e-01
3.63500000e+02	8.72117675e-01
3.64500000e+02	8.70638682e-01
3.65500000e+02	8.69140220e-01
3.66500000e+02	8.67621988e-01
3.67500000e+02	8.66083680e-01
3.68500000e+02	8.64524987e-01
3.69500000e+02	8.62945600e-01
3.70500000e+02	8.61345208e-01
3.71500000e+02	8.59723497e-01
3.72500000e+02	8.58080152e-01
3.73500000e+02	8.56414855e-01
3.74500000e+02	8.54727287e-01
3.75500000e+02	8.53017130e-01
3.76500000e+02	8.51284061e-01
3.77500000e+02	8.49527758e-01
3.78500000e+02	8.47747898e-01
3.79500000e+02	8.45944157e-01
3.80500000e+02	8.44116209e-01
3.81500000e+02	8.42263729e-01
3.82500000e+02	8.40386391e-01
3.83500000e+02	8.38483870e-01
3.84500000e+02	8.36555838e-01
3.85500000e+02	8.34601971e-01
3.86500000e+02	8.32621941e-01
3.87500000e+02	8.30615426e-01
3.88500000e+02	8.28582100e-01
3.89500000e+02	8.26521639e-01
3.90500000e+02	8.24433723e-01
3.91500000e+02	8.22318029e-01
3.92500000e+02	8.20174240e-01
3.93500000e+02	8.18002037e-01
3.94500000e+02	8.15801106e-01
3.95500000e+02	8.13571134e-01
3.96500000e+02	8.11311811e-01
3.97500000e+02	8.09022829e-01
3.98500000e+02	8.06703884e-01
3.99500000e+02	8.04354676e-01
4.00500000e+02	8.01974907e-01
4.01500000e+02	7.99564285e-01
4.02500000e+02	7.97122519e-01
4.03500000e+02	7.94649327e-01
4.04500000e+02	7.92144429e-01
4.05500000e+02	7.89607549e-01
4.06500000e+02	7.87038421e-01
4.07500000e+02	7.84436779e-01
4.08500000e+02	7.81802369e-01
4.09500000e+02	7.79134938e-01
4.10500000e+02	7.76434244e-01
4.11500000e+02	7.73700050e-01
4.12500000e+02	7.70932127e-01
4.13500000e+02	7.68130253e-01
4.14500000e+02	7.65294216e-01
4.15500000e+02	7.62423810e-01
4.16500000e+02	7.59518840e-01
4.17500000e+02	7.56579119e-01
4.18500000e+02	7.53604470e-01
4.19500000e+02	7.50594726e-01
4.20500000e+02	7.47549729e-01
4.21500000e+02	7.44469333e-01
4.22500000e+02	7.41353403e-01
4.23500000e+02	7.38201815e-01
4.24500000e+02	7.35014455e-01
4.25500000e+02	7.31791224e-01
4.26500000e+02	7.28532032e-01
4.27500000e+02	7.25236805e-01
4.28500000e+02	7.21905480e-01
4.29500000e+02	7.18538008e-01
4.30500000e+02	7.15134352e-01
4.31500000e+02	7.11694492e-01
4.32500000e+02	7.08218421e-01
4.33500000e+02	7.04706146e-01
4.34500000e+02	7.01157689e-01
4.35500000e+02	6.97573089e-01
4.36500000e+02	6.93952399e-01
4.37500000e+02	6.90295688e-01
4.38500000e+02	6.86603042e-01
4.39500000e+02	6.82874563e-01
4.40500000e+02	6.79110371e-01
4.41500000e+02	6.75310601e-01
4.42500000e+02	6.71475408e-01
4.43500000e+02	6.67604963e-01
4.44500000e+02	6.63699456e-01
4.45500000e+02	6.59759095e-01
4.46500000e+02	6.55784107e-01
4.47500000e+02	6.51774738e-01
4.48500000e+02	6.47731253e-01
4.49500000e+02	6.43653937e-01
4.50500000e+02	6.39543096e-01
4.51500000e+02	6.35399055e-01
4.52500000e+02	6.31222161e-01
4.53500000e+02	6.27012781e-01
4.54500000e+02	6.22771305e-01
4.55500000e+02	6.18498145e-01
4.56500000e+02	6.14193733e-01
4.57500000e+02	6.09858529e-01
4.58500000e+02	6.05493011e-01
4.59500000e+02	6.01097684e-01
4.60500000e+02	5.96673079e-01
4.61500000e+02	5.92219748e-01
4.62500000e+02	5.87738273e-01
4.63500000e+02	5.83229261e-01
4.64500000e+02	5.78693345e-01
4.65500000e+02	5.74131186e-01
4.66500000e+02	5.69543477e-01
4.67500000e+02	5.64930937e-01
4.68500000e+02	5.60294316e-01
4.69500000e+02	5.55634397e-01
4.70500000e+02	5.50951992e-01
4.71500000e+02	5.46247949e-01
4.72500000e+02	5.41523148e-01
4.73500000e+02	5.36778505e-01
4.74500000e+02	5.32014973e-01
4.75500000e+02	5.27233539e-01
4.76500000e+02	5.22435231e-01
4.77500000e+02	5.17621113e-01
4.78500000e+02	5.12792292e-01
4.79500000e+02	5.07949915e-01
4.80500000e+02	5.03095168e-01
4.81500000e+02	4.98229285e-01
4.82500000e+02	4.93353539e-01
4.83500000e+02	4.88469249e-01
4.84500000e+02	4.83577780e-01
4.85500000e+02	4.78680541e-01
4.86500000e+02	4.73778988e-01
4.87500000e+02	4.68874622e-01
4.88500000e+02	4.63968991e-01
4.89500000e+02	4.59063690e-01
4.90500000e+02	4.54160359e-01
4.91500000e+02	4.49260683e-01
4.92500000e+02	4.44366394e-01
4.93500000e+02	4.39479265e-01
4.94500000e+02	4.34601113e-01
4.95500000e+02	4.29733795e-01
4.96500000e+02	4.24879207e-01
4.97500000e+02	4.20039283e-01
4.98500000e+02	4.15215988e-01
4.99500000e+02	4.10411320e-01
5.00500000e+02	4.05627304e-01
5.01500000e+02	4.00865988e-01
5.02500000e+02	3.96129442e-01
5.03500000e+02	3.91419748e-01
5.04500000e+02	3.86739000e-01
5.05500000e+02	3.82089298e-01
5.06500000e+02	3.77472738e-01
5.07500000e+02	3.72891414e-01
5.08500000e+02	3.68347405e-01
5.09500000e+02	3.63842770e-01
5.10500000e+02	3.59379547e-01
5.11500000e+02	3.54959736e-01
5.12500000e+02	3.50585303e-01
5.13500000e+02	3.46258167e-01
5.14500000e+02	3.41980191e-01
5.15500000e+02	3.37753184e-01
5.16500000e+02	3.33578886e-01
5.17500000e+02	3.29458963e-01
5.18500000e+02	3.25395006e-01
5.19500000e+02	3.21388520e-01
5.20500000e+02	3.17440918e-01
5.21500000e+02	3.13553522e-01
5.22500000e+02	3.09727551e-01
5.23500000e+02	3.05964124e-01
5.24500000e+02	3.02264250e-01
5.25500000e+02	2.98628830e-01
5.26500000e+02	2.95058653e-01
5.27500000e+02	2.91554397e-01
5.28500000e+02	2.88116621e-01
5.29500000e+02	2.84745774e-01
5.30500000e+02	2.81442191e-01
5.31500000e+02	2.78206091e-01
5.32500000e+02	2.75037586e-01
5.33500000e+02	2.71936677e-01
5.34500000e+02	2.68903259e-01
5.35500000e+02	2.65937127e-01
5.36500000e+02	2.63037974e-01
5.37500000e+02	2.60205400e-01
5.38500000e+02	2.57438916e-01
5.39500000e+02	2.54737946e-01
5.40500000e+02	2.52101834e-01
5.41500000e+02	2.49529850e-01
5.42500000e+02	2.47021193e-01
5.43500000e+02	2.44575001e-01
5.44500000e+02	2.42190350e-01
5.45500000e+02	2.39866264e-01
5.46500000e+02	2.37601721e-01
5.47500000e+02	2.35395654e-01
5.48500000e+02	2.33246961e-01
5.49500000e+02	2.31154508e-01
5.50500000e+02	2.29117132e-01
5.51500000e+02	2.27133650e-01
5.52500000e+02	2.25202860e-01
5.53500000e+02	2.23323546e-01
5.54500000e+02	2.21494484e-01
5.55500000e+02	2.19714442e-01
5.56500000e+02	2.17982189e-01
5.57500000e+02	2.16296490e-01
5.58500000e+02	2.14656119e-01
5.59500000e+02	2.13059854e-01
5.60500000e+02	2.11506483e-01
5.61500000e+02	2.09994805e-01
5.62500000e+02	2.08523635e-01
5.63500000e+02	2.07091800e-01
5.64500000e+02	2.05698146e-01
5.65500000e+02	2.04341539e-01
5.66500000e+02	2.03020862e-01
5.67500000e+02	2.01735021e-01
5.68500000e+02	2.00482943e-01
5.69500000e+02	1.99263579e-01
5.70500000e+02	1.98075902e-01
5.71500000e+02	1.96918910e-01
5.72500000e+02	1.95791623e-01
5.73500000e+02	1.94693090e-01
5.74500000e+02	1.93622380e-01
5.75500000e+02	1.92578590e-01
5.76500000e+02	1.91560842e-01
5.77500000e+02	1.90568281e-01
5.78500000e+02	1.89600080e-01
5.79500000e+02	1.88655435e-01
5.80500000e+02	1.87733567e-01
5.81500000e+02	1.86833721e-01
5.82500000e+02	1.85955168e-01
5.83500000e+02	1.85097202e-01
5.84500000e+02	1.84259141e-01
5.85500000e+02	1.83440326e-01
5.86500000e+02	1.82640123e-01
5.87500000e+02	1.81857919e-01
5.88500000e+02	1.81093125e-01
5.89500000e+02	1.80345174e-01
5.90500000e+02	1.79613520e-01
5.91500000e+02	1.78897640e-01
5.92500000e+02	1.78197031e-01
5.93500000e+02	1.77511213e-01
5.94500000e+02	1.76839724e-01
5.95500000e+02	1.76182123e-01
5.96500000e+02	1.75537991e-01
5.97500000e+02	1.74906926e-01
5.98500000e+02	1.74288545e-01
5.99500000e+02	1.73682486e-01
6.00500000e+02	1.73088401e-01
6.01500000e+02	1.72505965e-01
6.02500000e+02	1.71934867e-01
6.03500000e+02	1.71374815e-01
6.04500000e+02	1.70825530e-01
6.05500000e+02	1.70286754e-01
6.06500000e+02	1.69758242e-01
6.07500000e+02	1.69239761e-01
6.08500000e+02	1.68731098e-01
6.09500000e+02	1.68232053e-01
6.10500000e+02	1.67742435e-01
6.11500000e+02	1.67262068e-01
6.12500000e+02	1.66790802e-01
6.13500000e+02	1.66328460e-01
6.14500000e+02	1.65874913e-01
6.15500000e+02	1.65430035e-01
6.16500000e+02	1.64993702e-01
6.17500000e+02	1.64565807e-01
6.18500000e+02	1.64146243e-01
6.19500000e+02	1.63734913e-01
6.20500000e+02	1.63331736e-01
6.21500000e+02	1.62936622e-01
6.22500000e+02	1.62549498e-01
6.23500000e+02	1.62170295e-01
6.24500000e+02	1.61798940e-01
6.25500000e+02	1.61435377e-01
6.26500000e+02	1.61079539e-01
6.27500000e+02	1.60731373e-01
6.28500000e+02	1.60390822e-01
6.29500000e+02	1.60057831e-01
6.30500000e+02	1.59732348e-01
6.31500000e+02	1.59414316e-01
6.32500000e+02	1.59103688e-01
6.33500000e+02	1.58800403e-01
6.34500000e+02	1.58504412e-01
6.35500000e+02	1.58215656e-01
6.36500000e+02	1.57934077e-01
6.37500000e+02	1.57659617e-01
6.38500000e+02	1.57392210e-01
6.39500000e+02	1.57131797e-01
6.40500000e+02	1.56878307e-01
6.41500000e+02	1.56631673e-01
6.42500000e+02	1.56391819e-01
6.43500000e+02	1.56158674e-01
6.44500000e+02	1.55932156e-01
6.45500000e+02	1.55712187e-01
6.46500000e+02	1.55498680e-01
6.47500000e+02	1.55291550e-01
6.48500000e+02	1.55090708e-01
6.49500000e+02	1.54896060e-01
6.50500000e+02	1.54707514e-01
6.51500000e+02	1.54524970e-01
6.52500000e+02	1.54348333e-01
6.53500000e+02	1.54177499e-01
6.54500000e+02	1.54012368e-01
6.55500000e+02	1.53852833e-01
6.56500000e+02	1.53698792e-01
6.57500000e+02	1.53550136e-01
6.58500000e+02	1.53406760e-01
6.59500000e+02	1.53268554e-01
6.60500000e+02	1.53135412e-01
