# Profil de Te au temps 1.900999999999955e-11 
# simu : /Volumes/MERCURE/JOBS/Zeq1_tanh_50mic_1p5e20_B0_20ps/GNU/Te@y-c.set
# col 0 : abscisse (um)
# col 1 : Te (keV)
5.00000000e-01	9.72071604e-01
1.50000000e+00	9.72070428e-01
2.50000000e+00	9.72068210e-01
3.50000000e+00	9.72064876e-01
4.50000000e+00	9.72060399e-01
5.50000000e+00	9.72054807e-01
6.50000000e+00	9.72048096e-01
7.50000000e+00	9.72040265e-01
8.50000000e+00	9.72031315e-01
9.50000000e+00	9.72021246e-01
1.05000000e+01	9.72010056e-01
1.15000000e+01	9.71997746e-01
1.25000000e+01	9.71984314e-01
1.35000000e+01	9.71969761e-01
1.45000000e+01	9.71954086e-01
1.55000000e+01	9.71937288e-01
1.65000000e+01	9.71919366e-01
1.75000000e+01	9.71900321e-01
1.85000000e+01	9.71880150e-01
1.95000000e+01	9.71858853e-01
2.05000000e+01	9.71836430e-01
2.15000000e+01	9.71812879e-01
2.25000000e+01	9.71788200e-01
2.35000000e+01	9.71762391e-01
2.45000000e+01	9.71735451e-01
2.55000000e+01	9.71707380e-01
2.65000000e+01	9.71678176e-01
2.75000000e+01	9.71647838e-01
2.85000000e+01	9.71616365e-01
2.95000000e+01	9.71583755e-01
3.05000000e+01	9.71550008e-01
3.15000000e+01	9.71515120e-01
3.25000000e+01	9.71479093e-01
3.35000000e+01	9.71441922e-01
3.45000000e+01	9.71403608e-01
3.55000000e+01	9.71364149e-01
3.65000000e+01	9.71323542e-01
3.75000000e+01	9.71281786e-01
3.85000000e+01	9.71238880e-01
3.95000000e+01	9.71194821e-01
4.05000000e+01	9.71149608e-01
4.15000000e+01	9.71103238e-01
4.25000000e+01	9.71055710e-01
4.35000000e+01	9.71007022e-01
4.45000000e+01	9.70957171e-01
4.55000000e+01	9.70906155e-01
4.65000000e+01	9.70853972e-01
4.75000000e+01	9.70800620e-01
4.85000000e+01	9.70746096e-01
4.95000000e+01	9.70690398e-01
5.05000000e+01	9.70633523e-01
5.15000000e+01	9.70575468e-01
5.25000000e+01	9.70516232e-01
5.35000000e+01	9.70455812e-01
5.45000000e+01	9.70394204e-01
5.55000000e+01	9.70331405e-01
5.65000000e+01	9.70267414e-01
5.75000000e+01	9.70202226e-01
5.85000000e+01	9.70135839e-01
5.95000000e+01	9.70068250e-01
6.05000000e+01	9.69999456e-01
6.15000000e+01	9.69929453e-01
6.25000000e+01	9.69858237e-01
6.35000000e+01	9.69785806e-01
6.45000000e+01	9.69712156e-01
6.55000000e+01	9.69637284e-01
6.65000000e+01	9.69561185e-01
6.75000000e+01	9.69483857e-01
6.85000000e+01	9.69405294e-01
6.95000000e+01	9.69325494e-01
7.05000000e+01	9.69244453e-01
7.15000000e+01	9.69162166e-01
7.25000000e+01	9.69078629e-01
7.35000000e+01	9.68993838e-01
7.45000000e+01	9.68907789e-01
7.55000000e+01	9.68820477e-01
7.65000000e+01	9.68731898e-01
7.75000000e+01	9.68642047e-01
7.85000000e+01	9.68550920e-01
7.95000000e+01	9.68458512e-01
8.05000000e+01	9.68364818e-01
8.15000000e+01	9.68269834e-01
8.25000000e+01	9.68173553e-01
8.35000000e+01	9.68075972e-01
8.45000000e+01	9.67977084e-01
8.55000000e+01	9.67876886e-01
8.65000000e+01	9.67775370e-01
8.75000000e+01	9.67672532e-01
8.85000000e+01	9.67568367e-01
8.95000000e+01	9.67462868e-01
9.05000000e+01	9.67356030e-01
9.15000000e+01	9.67247846e-01
9.25000000e+01	9.67138312e-01
9.35000000e+01	9.67027421e-01
9.45000000e+01	9.66915166e-01
9.55000000e+01	9.66801542e-01
9.65000000e+01	9.66686541e-01
9.75000000e+01	9.66570159e-01
9.85000000e+01	9.66452387e-01
9.95000000e+01	9.66333219e-01
1.00500000e+02	9.66212650e-01
1.01500000e+02	9.66090670e-01
1.02500000e+02	9.65967275e-01
1.03500000e+02	9.65842455e-01
1.04500000e+02	9.65716205e-01
1.05500000e+02	9.65588517e-01
1.06500000e+02	9.65459383e-01
1.07500000e+02	9.65328797e-01
1.08500000e+02	9.65196749e-01
1.09500000e+02	9.65063233e-01
1.10500000e+02	9.64928240e-01
1.11500000e+02	9.64791762e-01
1.12500000e+02	9.64653792e-01
1.13500000e+02	9.64514321e-01
1.14500000e+02	9.64373341e-01
1.15500000e+02	9.64230843e-01
1.16500000e+02	9.64086818e-01
1.17500000e+02	9.63941259e-01
1.18500000e+02	9.63794155e-01
1.19500000e+02	9.63645498e-01
1.20500000e+02	9.63495280e-01
1.21500000e+02	9.63343490e-01
1.22500000e+02	9.63190119e-01
1.23500000e+02	9.63035158e-01
1.24500000e+02	9.62878598e-01
1.25500000e+02	9.62720428e-01
1.26500000e+02	9.62560639e-01
1.27500000e+02	9.62399221e-01
1.28500000e+02	9.62236164e-01
1.29500000e+02	9.62071457e-01
1.30500000e+02	9.61905090e-01
1.31500000e+02	9.61737052e-01
1.32500000e+02	9.61567334e-01
1.33500000e+02	9.61395924e-01
1.34500000e+02	9.61222812e-01
1.35500000e+02	9.61047986e-01
1.36500000e+02	9.60871435e-01
1.37500000e+02	9.60693149e-01
1.38500000e+02	9.60513115e-01
1.39500000e+02	9.60331322e-01
1.40500000e+02	9.60147759e-01
1.41500000e+02	9.59962413e-01
1.42500000e+02	9.59775274e-01
1.43500000e+02	9.59586328e-01
1.44500000e+02	9.59395563e-01
1.45500000e+02	9.59202967e-01
1.46500000e+02	9.59008529e-01
1.47500000e+02	9.58812235e-01
1.48500000e+02	9.58614072e-01
1.49500000e+02	9.58414028e-01
1.50500000e+02	9.58212089e-01
1.51500000e+02	9.58008242e-01
1.52500000e+02	9.57802475e-01
1.53500000e+02	9.57594772e-01
1.54500000e+02	9.57385121e-01
1.55500000e+02	9.57173508e-01
1.56500000e+02	9.56959919e-01
1.57500000e+02	9.56744340e-01
1.58500000e+02	9.56526756e-01
1.59500000e+02	9.56307154e-01
1.60500000e+02	9.56085518e-01
1.61500000e+02	9.55861833e-01
1.62500000e+02	9.55636086e-01
1.63500000e+02	9.55408260e-01
1.64500000e+02	9.55178340e-01
1.65500000e+02	9.54946311e-01
1.66500000e+02	9.54712158e-01
1.67500000e+02	9.54475864e-01
1.68500000e+02	9.54237415e-01
1.69500000e+02	9.53996793e-01
1.70500000e+02	9.53753983e-01
1.71500000e+02	9.53508968e-01
1.72500000e+02	9.53261732e-01
1.73500000e+02	9.53012257e-01
1.74500000e+02	9.52760528e-01
1.75500000e+02	9.52506527e-01
1.76500000e+02	9.52250236e-01
1.77500000e+02	9.51991639e-01
1.78500000e+02	9.51730717e-01
1.79500000e+02	9.51467453e-01
1.80500000e+02	9.51201829e-01
1.81500000e+02	9.50933826e-01
1.82500000e+02	9.50663427e-01
1.83500000e+02	9.50390613e-01
1.84500000e+02	9.50115364e-01
1.85500000e+02	9.49837663e-01
1.86500000e+02	9.49557489e-01
1.87500000e+02	9.49274824e-01
1.88500000e+02	9.48989648e-01
1.89500000e+02	9.48701941e-01
1.90500000e+02	9.48411683e-01
1.91500000e+02	9.48118855e-01
1.92500000e+02	9.47823435e-01
1.93500000e+02	9.47525403e-01
1.94500000e+02	9.47224738e-01
1.95500000e+02	9.46921420e-01
1.96500000e+02	9.46615427e-01
1.97500000e+02	9.46306737e-01
1.98500000e+02	9.45995329e-01
1.99500000e+02	9.45681180e-01
2.00500000e+02	9.45364270e-01
2.01500000e+02	9.45044574e-01
2.02500000e+02	9.44722071e-01
2.03500000e+02	9.44396738e-01
2.04500000e+02	9.44068551e-01
2.05500000e+02	9.43737487e-01
2.06500000e+02	9.43403523e-01
2.07500000e+02	9.43066635e-01
2.08500000e+02	9.42726798e-01
2.09500000e+02	9.42383988e-01
2.10500000e+02	9.42038180e-01
2.11500000e+02	9.41689350e-01
2.12500000e+02	9.41337472e-01
2.13500000e+02	9.40982520e-01
2.14500000e+02	9.40624470e-01
2.15500000e+02	9.40263294e-01
2.16500000e+02	9.39898967e-01
2.17500000e+02	9.39531463e-01
2.18500000e+02	9.39160753e-01
2.19500000e+02	9.38786811e-01
2.20500000e+02	9.38409609e-01
2.21500000e+02	9.38029119e-01
2.22500000e+02	9.37645314e-01
2.23500000e+02	9.37258165e-01
2.24500000e+02	9.36867644e-01
2.25500000e+02	9.36473720e-01
2.26500000e+02	9.36076365e-01
2.27500000e+02	9.35675549e-01
2.28500000e+02	9.35271242e-01
2.29500000e+02	9.34863414e-01
2.30500000e+02	9.34452033e-01
2.31500000e+02	9.34037070e-01
2.32500000e+02	9.33618491e-01
2.33500000e+02	9.33196267e-01
2.34500000e+02	9.32770364e-01
2.35500000e+02	9.32340750e-01
2.36500000e+02	9.31907392e-01
2.37500000e+02	9.31470257e-01
2.38500000e+02	9.31029311e-01
2.39500000e+02	9.30584521e-01
2.40500000e+02	9.30135852e-01
2.41500000e+02	9.29683269e-01
2.42500000e+02	9.29226737e-01
2.43500000e+02	9.28766221e-01
2.44500000e+02	9.28301685e-01
2.45500000e+02	9.27833092e-01
2.46500000e+02	9.27360405e-01
2.47500000e+02	9.26883588e-01
2.48500000e+02	9.26402603e-01
2.49500000e+02	9.25917412e-01
2.50500000e+02	9.25427976e-01
2.51500000e+02	9.24934257e-01
2.52500000e+02	9.24436215e-01
2.53500000e+02	9.23933811e-01
2.54500000e+02	9.23427004e-01
2.55500000e+02	9.22915753e-01
2.56500000e+02	9.22400018e-01
2.57500000e+02	9.21879757e-01
2.58500000e+02	9.21354928e-01
2.59500000e+02	9.20825489e-01
2.60500000e+02	9.20291396e-01
2.61500000e+02	9.19752605e-01
2.62500000e+02	9.19209074e-01
2.63500000e+02	9.18660757e-01
2.64500000e+02	9.18107610e-01
2.65500000e+02	9.17549587e-01
2.66500000e+02	9.16986642e-01
2.67500000e+02	9.16418728e-01
2.68500000e+02	9.15845800e-01
2.69500000e+02	9.15267808e-01
2.70500000e+02	9.14684706e-01
2.71500000e+02	9.14096444e-01
2.72500000e+02	9.13502974e-01
2.73500000e+02	9.12904245e-01
2.74500000e+02	9.12300208e-01
2.75500000e+02	9.11690812e-01
2.76500000e+02	9.11076006e-01
2.77500000e+02	9.10455737e-01
2.78500000e+02	9.09829954e-01
2.79500000e+02	9.09198603e-01
2.80500000e+02	9.08561632e-01
2.81500000e+02	9.07918984e-01
2.82500000e+02	9.07270607e-01
2.83500000e+02	9.06616445e-01
2.84500000e+02	9.05956441e-01
2.85500000e+02	9.05290540e-01
2.86500000e+02	9.04618685e-01
2.87500000e+02	9.03940817e-01
2.88500000e+02	9.03256878e-01
2.89500000e+02	9.02566810e-01
2.90500000e+02	9.01870553e-01
2.91500000e+02	9.01168046e-01
2.92500000e+02	9.00459230e-01
2.93500000e+02	8.99744043e-01
2.94500000e+02	8.99022423e-01
2.95500000e+02	8.98294307e-01
2.96500000e+02	8.97559631e-01
2.97500000e+02	8.96818333e-01
2.98500000e+02	8.96070348e-01
2.99500000e+02	8.95315610e-01
3.00500000e+02	8.94554053e-01
3.01500000e+02	8.93785611e-01
3.02500000e+02	8.93010218e-01
3.03500000e+02	8.92227805e-01
3.04500000e+02	8.91438303e-01
3.05500000e+02	8.90641644e-01
3.06500000e+02	8.89837758e-01
3.07500000e+02	8.89026575e-01
3.08500000e+02	8.88208023e-01
3.09500000e+02	8.87382031e-01
3.10500000e+02	8.86548527e-01
3.11500000e+02	8.85707436e-01
3.12500000e+02	8.84858687e-01
3.13500000e+02	8.84002203e-01
3.14500000e+02	8.83137911e-01
3.15500000e+02	8.82265734e-01
3.16500000e+02	8.81385596e-01
3.17500000e+02	8.80497419e-01
3.18500000e+02	8.79601127e-01
3.19500000e+02	8.78696641e-01
3.20500000e+02	8.77783882e-01
3.21500000e+02	8.76862769e-01
3.22500000e+02	8.75933223e-01
3.23500000e+02	8.74995162e-01
3.24500000e+02	8.74048506e-01
3.25500000e+02	8.73093170e-01
3.26500000e+02	8.72129073e-01
3.27500000e+02	8.71156131e-01
3.28500000e+02	8.70174259e-01
3.29500000e+02	8.69183372e-01
3.30500000e+02	8.68183386e-01
3.31500000e+02	8.67174213e-01
3.32500000e+02	8.66155766e-01
3.33500000e+02	8.65127959e-01
3.34500000e+02	8.64090703e-01
3.35500000e+02	8.63043909e-01
3.36500000e+02	8.61987488e-01
3.37500000e+02	8.60921350e-01
3.38500000e+02	8.59845405e-01
3.39500000e+02	8.58759561e-01
3.40500000e+02	8.57663727e-01
3.41500000e+02	8.56557811e-01
3.42500000e+02	8.55441719e-01
3.43500000e+02	8.54315359e-01
3.44500000e+02	8.53178636e-01
3.45500000e+02	8.52031456e-01
3.46500000e+02	8.50873725e-01
3.47500000e+02	8.49705345e-01
3.48500000e+02	8.48526223e-01
3.49500000e+02	8.47336261e-01
3.50500000e+02	8.46135362e-01
3.51500000e+02	8.44923429e-01
3.52500000e+02	8.43700364e-01
3.53500000e+02	8.42466069e-01
3.54500000e+02	8.41220445e-01
3.55500000e+02	8.39963394e-01
3.56500000e+02	8.38694815e-01
3.57500000e+02	8.37414610e-01
3.58500000e+02	8.36122677e-01
3.59500000e+02	8.34818917e-01
3.60500000e+02	8.33503229e-01
3.61500000e+02	8.32175511e-01
3.62500000e+02	8.30835662e-01
3.63500000e+02	8.29483581e-01
3.64500000e+02	8.28119166e-01
3.65500000e+02	8.26742314e-01
3.66500000e+02	8.25352924e-01
3.67500000e+02	8.23950894e-01
3.68500000e+02	8.22536120e-01
3.69500000e+02	8.21108499e-01
3.70500000e+02	8.19667931e-01
3.71500000e+02	8.18214310e-01
3.72500000e+02	8.16747535e-01
3.73500000e+02	8.15267503e-01
3.74500000e+02	8.13774111e-01
3.75500000e+02	8.12267256e-01
3.76500000e+02	8.10746835e-01
3.77500000e+02	8.09212746e-01
3.78500000e+02	8.07664885e-01
3.79500000e+02	8.06103152e-01
3.80500000e+02	8.04527443e-01
3.81500000e+02	8.02937656e-01
3.82500000e+02	8.01333690e-01
3.83500000e+02	7.99715444e-01
3.84500000e+02	7.98082816e-01
3.85500000e+02	7.96435705e-01
3.86500000e+02	7.94774011e-01
3.87500000e+02	7.93097634e-01
3.88500000e+02	7.91406474e-01
3.89500000e+02	7.89700433e-01
3.90500000e+02	7.87979411e-01
3.91500000e+02	7.86243312e-01
3.92500000e+02	7.84492036e-01
3.93500000e+02	7.82725489e-01
3.94500000e+02	7.80943573e-01
3.95500000e+02	7.79146193e-01
3.96500000e+02	7.77333254e-01
3.97500000e+02	7.75504663e-01
3.98500000e+02	7.73660326e-01
3.99500000e+02	7.71800152e-01
4.00500000e+02	7.69924050e-01
4.01500000e+02	7.68031927e-01
4.02500000e+02	7.66123697e-01
4.03500000e+02	7.64199269e-01
4.04500000e+02	7.62258558e-01
4.05500000e+02	7.60301476e-01
4.06500000e+02	7.58327939e-01
4.07500000e+02	7.56337863e-01
4.08500000e+02	7.54331165e-01
4.09500000e+02	7.52307764e-01
4.10500000e+02	7.50267581e-01
4.11500000e+02	7.48210537e-01
4.12500000e+02	7.46136553e-01
4.13500000e+02	7.44045556e-01
4.14500000e+02	7.41937470e-01
4.15500000e+02	7.39812223e-01
4.16500000e+02	7.37669744e-01
4.17500000e+02	7.35509964e-01
4.18500000e+02	7.33332814e-01
4.19500000e+02	7.31138228e-01
4.20500000e+02	7.28926143e-01
4.21500000e+02	7.26696496e-01
4.22500000e+02	7.24449226e-01
4.23500000e+02	7.22184274e-01
4.24500000e+02	7.19901585e-01
4.25500000e+02	7.17601103e-01
4.26500000e+02	7.15282775e-01
4.27500000e+02	7.12946552e-01
4.28500000e+02	7.10592384e-01
4.29500000e+02	7.08220225e-01
4.30500000e+02	7.05830033e-01
4.31500000e+02	7.03421764e-01
4.32500000e+02	7.00995380e-01
4.33500000e+02	6.98550844e-01
4.34500000e+02	6.96088121e-01
4.35500000e+02	6.93607181e-01
4.36500000e+02	6.91107993e-01
4.37500000e+02	6.88590531e-01
4.38500000e+02	6.86054772e-01
4.39500000e+02	6.83500694e-01
4.40500000e+02	6.80928279e-01
4.41500000e+02	6.78337511e-01
4.42500000e+02	6.75728379e-01
4.43500000e+02	6.73100873e-01
4.44500000e+02	6.70454987e-01
4.45500000e+02	6.67790719e-01
4.46500000e+02	6.65108067e-01
4.47500000e+02	6.62407037e-01
4.48500000e+02	6.59687636e-01
4.49500000e+02	6.56949873e-01
4.50500000e+02	6.54193764e-01
4.51500000e+02	6.51419327e-01
4.52500000e+02	6.48626583e-01
4.53500000e+02	6.45815559e-01
4.54500000e+02	6.42986284e-01
4.55500000e+02	6.40138794e-01
4.56500000e+02	6.37273126e-01
4.57500000e+02	6.34389323e-01
4.58500000e+02	6.31487433e-01
4.59500000e+02	6.28567509e-01
4.60500000e+02	6.25629607e-01
4.61500000e+02	6.22673789e-01
4.62500000e+02	6.19700123e-01
4.63500000e+02	6.16708682e-01
4.64500000e+02	6.13699545e-01
4.65500000e+02	6.10672794e-01
4.66500000e+02	6.07628520e-01
4.67500000e+02	6.04566820e-01
4.68500000e+02	6.01487796e-01
4.69500000e+02	5.98391556e-01
4.70500000e+02	5.95278217e-01
4.71500000e+02	5.92147902e-01
4.72500000e+02	5.89000741e-01
4.73500000e+02	5.85836872e-01
4.74500000e+02	5.82656440e-01
4.75500000e+02	5.79459600e-01
4.76500000e+02	5.76246514e-01
4.77500000e+02	5.73017354e-01
4.78500000e+02	5.69772298e-01
4.79500000e+02	5.66511538e-01
4.80500000e+02	5.63235272e-01
4.81500000e+02	5.59943710e-01
4.82500000e+02	5.56637072e-01
4.83500000e+02	5.53315589e-01
4.84500000e+02	5.49979503e-01
4.85500000e+02	5.46629069e-01
4.86500000e+02	5.43264551e-01
4.87500000e+02	5.39886229e-01
4.88500000e+02	5.36494394e-01
4.89500000e+02	5.33089350e-01
4.90500000e+02	5.29671417e-01
4.91500000e+02	5.26240926e-01
4.92500000e+02	5.22798227e-01
4.93500000e+02	5.19343681e-01
4.94500000e+02	5.15877666e-01
4.95500000e+02	5.12400579e-01
4.96500000e+02	5.08912829e-01
4.97500000e+02	5.05414844e-01
4.98500000e+02	5.01907072e-01
4.99500000e+02	4.98389975e-01
5.00500000e+02	4.94864036e-01
5.01500000e+02	4.91329757e-01
5.02500000e+02	4.87787656e-01
5.03500000e+02	4.84238276e-01
5.04500000e+02	4.80682176e-01
5.05500000e+02	4.77119936e-01
5.06500000e+02	4.73552160e-01
5.07500000e+02	4.69979469e-01
5.08500000e+02	4.66402508e-01
5.09500000e+02	4.62821943e-01
5.10500000e+02	4.59238463e-01
5.11500000e+02	4.55652776e-01
5.12500000e+02	4.52065615e-01
5.13500000e+02	4.48477735e-01
5.14500000e+02	4.44889912e-01
5.15500000e+02	4.41302944e-01
5.16500000e+02	4.37717653e-01
5.17500000e+02	4.34134880e-01
5.18500000e+02	4.30555489e-01
5.19500000e+02	4.26980365e-01
5.20500000e+02	4.23410413e-01
5.21500000e+02	4.19846558e-01
5.22500000e+02	4.16289744e-01
5.23500000e+02	4.12740936e-01
5.24500000e+02	4.09201111e-01
5.25500000e+02	4.05671269e-01
5.26500000e+02	4.02152421e-01
5.27500000e+02	3.98645593e-01
5.28500000e+02	3.95151825e-01
5.29500000e+02	3.91672168e-01
5.30500000e+02	3.88207681e-01
5.31500000e+02	3.84759434e-01
5.32500000e+02	3.81328501e-01
5.33500000e+02	3.77915962e-01
5.34500000e+02	3.74522896e-01
5.35500000e+02	3.71150387e-01
5.36500000e+02	3.67799512e-01
5.37500000e+02	3.64471348e-01
5.38500000e+02	3.61166962e-01
5.39500000e+02	3.57887412e-01
5.40500000e+02	3.54633748e-01
5.41500000e+02	3.51407000e-01
5.42500000e+02	3.48208187e-01
5.43500000e+02	3.45038304e-01
5.44500000e+02	3.41898327e-01
5.45500000e+02	3.38789206e-01
5.46500000e+02	3.35711866e-01
5.47500000e+02	3.32667200e-01
5.48500000e+02	3.29656071e-01
5.49500000e+02	3.26679308e-01
5.50500000e+02	3.23737704e-01
5.51500000e+02	3.20832013e-01
5.52500000e+02	3.17962948e-01
5.53500000e+02	3.15131183e-01
5.54500000e+02	3.12337345e-01
5.55500000e+02	3.09582019e-01
5.56500000e+02	3.06865743e-01
5.57500000e+02	3.04189006e-01
5.58500000e+02	3.01552252e-01
5.59500000e+02	2.98955873e-01
5.60500000e+02	2.96400213e-01
5.61500000e+02	2.93885568e-01
5.62500000e+02	2.91412183e-01
5.63500000e+02	2.88980253e-01
5.64500000e+02	2.86589926e-01
5.65500000e+02	2.84241301e-01
5.66500000e+02	2.81934427e-01
5.67500000e+02	2.79669309e-01
5.68500000e+02	2.77445906e-01
5.69500000e+02	2.75264132e-01
5.70500000e+02	2.73123857e-01
5.71500000e+02	2.71024911e-01
5.72500000e+02	2.68967083e-01
5.73500000e+02	2.66950125e-01
5.74500000e+02	2.64973752e-01
5.75500000e+02	2.63037643e-01
5.76500000e+02	2.61141448e-01
5.77500000e+02	2.59284782e-01
5.78500000e+02	2.57467235e-01
5.79500000e+02	2.55688369e-01
5.80500000e+02	2.53947721e-01
5.81500000e+02	2.52244807e-01
5.82500000e+02	2.50579122e-01
5.83500000e+02	2.48950141e-01
5.84500000e+02	2.47357324e-01
5.85500000e+02	2.45800117e-01
5.86500000e+02	2.44277951e-01
5.87500000e+02	2.42790247e-01
5.88500000e+02	2.41336419e-01
5.89500000e+02	2.39915869e-01
5.90500000e+02	2.38527995e-01
5.91500000e+02	2.37172193e-01
5.92500000e+02	2.35847851e-01
5.93500000e+02	2.34554359e-01
5.94500000e+02	2.33291105e-01
5.95500000e+02	2.32057477e-01
5.96500000e+02	2.30852866e-01
5.97500000e+02	2.29676665e-01
5.98500000e+02	2.28528272e-01
5.99500000e+02	2.27407088e-01
6.00500000e+02	2.26312520e-01
6.01500000e+02	2.25243982e-01
6.02500000e+02	2.24200893e-01
6.03500000e+02	2.23182681e-01
6.04500000e+02	2.22188782e-01
6.05500000e+02	2.21218640e-01
6.06500000e+02	2.20271707e-01
6.07500000e+02	2.19347445e-01
6.08500000e+02	2.18445326e-01
6.09500000e+02	2.17564832e-01
6.10500000e+02	2.16705453e-01
6.11500000e+02	2.15866692e-01
6.12500000e+02	2.15048060e-01
6.13500000e+02	2.14249081e-01
6.14500000e+02	2.13469286e-01
6.15500000e+02	2.12708219e-01
6.16500000e+02	2.11965436e-01
6.17500000e+02	2.11240501e-01
6.18500000e+02	2.10532989e-01
6.19500000e+02	2.09842486e-01
6.20500000e+02	2.09168589e-01
6.21500000e+02	2.08510904e-01
6.22500000e+02	2.07869050e-01
6.23500000e+02	2.07242652e-01
6.24500000e+02	2.06631349e-01
6.25500000e+02	2.06034788e-01
6.26500000e+02	2.05452625e-01
6.27500000e+02	2.04884528e-01
6.28500000e+02	2.04330172e-01
6.29500000e+02	2.03789242e-01
6.30500000e+02	2.03261433e-01
6.31500000e+02	2.02746448e-01
6.32500000e+02	2.02244000e-01
6.33500000e+02	2.01753808e-01
6.34500000e+02	2.01275602e-01
6.35500000e+02	2.00809119e-01
6.36500000e+02	2.00354103e-01
6.37500000e+02	1.99910309e-01
6.38500000e+02	1.99477496e-01
6.39500000e+02	1.99055433e-01
6.40500000e+02	1.98643894e-01
6.41500000e+02	1.98242664e-01
6.42500000e+02	1.97851530e-01
6.43500000e+02	1.97470289e-01
6.44500000e+02	1.97098744e-01
6.45500000e+02	1.96736704e-01
6.46500000e+02	1.96383984e-01
6.47500000e+02	1.96040407e-01
6.48500000e+02	1.95705798e-01
6.49500000e+02	1.95379992e-01
6.50500000e+02	1.95062828e-01
6.51500000e+02	1.94754149e-01
6.52500000e+02	1.94453806e-01
6.53500000e+02	1.94161653e-01
6.54500000e+02	1.93877550e-01
6.55500000e+02	1.93601362e-01
6.56500000e+02	1.93332959e-01
6.57500000e+02	1.93072214e-01
6.58500000e+02	1.92819007e-01
6.59500000e+02	1.92573221e-01
6.60500000e+02	1.92334743e-01
