# Profil de Te au temps 1.000000000000012e-11 
# simu : /Volumes/MERCURE/JOBS/Zeq1_tanh_50mic_1p5e20_B0_20ps/GNU/Te@y-c.set
# col 0 : abscisse (um)
# col 1 : Te (keV)
5.00000000e-01	9.99666643e-01
1.50000000e+00	9.99666291e-01
2.50000000e+00	9.99665596e-01
3.50000000e+00	9.99664552e-01
4.50000000e+00	9.99663157e-01
5.50000000e+00	9.99661411e-01
6.50000000e+00	9.99659313e-01
7.50000000e+00	9.99656862e-01
8.50000000e+00	9.99654056e-01
9.50000000e+00	9.99650894e-01
1.05000000e+01	9.99647373e-01
1.15000000e+01	9.99643491e-01
1.25000000e+01	9.99639245e-01
1.35000000e+01	9.99634633e-01
1.45000000e+01	9.99629652e-01
1.55000000e+01	9.99624298e-01
1.65000000e+01	9.99618568e-01
1.75000000e+01	9.99612459e-01
1.85000000e+01	9.99605965e-01
1.95000000e+01	9.99599083e-01
2.05000000e+01	9.99591810e-01
2.15000000e+01	9.99584139e-01
2.25000000e+01	9.99576066e-01
2.35000000e+01	9.99567586e-01
2.45000000e+01	9.99558693e-01
2.55000000e+01	9.99549383e-01
2.65000000e+01	9.99539649e-01
2.75000000e+01	9.99529485e-01
2.85000000e+01	9.99518885e-01
2.95000000e+01	9.99507843e-01
3.05000000e+01	9.99496351e-01
3.15000000e+01	9.99484402e-01
3.25000000e+01	9.99471990e-01
3.35000000e+01	9.99459107e-01
3.45000000e+01	9.99445745e-01
3.55000000e+01	9.99431896e-01
3.65000000e+01	9.99417552e-01
3.75000000e+01	9.99402705e-01
3.85000000e+01	9.99387346e-01
3.95000000e+01	9.99371467e-01
4.05000000e+01	9.99355057e-01
4.15000000e+01	9.99338108e-01
4.25000000e+01	9.99320611e-01
4.35000000e+01	9.99302555e-01
4.45000000e+01	9.99283930e-01
4.55000000e+01	9.99264727e-01
4.65000000e+01	9.99244935e-01
4.75000000e+01	9.99224542e-01
4.85000000e+01	9.99203539e-01
4.95000000e+01	9.99181914e-01
5.05000000e+01	9.99159655e-01
5.15000000e+01	9.99136752e-01
5.25000000e+01	9.99113191e-01
5.35000000e+01	9.99088962e-01
5.45000000e+01	9.99064052e-01
5.55000000e+01	9.99038448e-01
5.65000000e+01	9.99012138e-01
5.75000000e+01	9.98985109e-01
5.85000000e+01	9.98957348e-01
5.95000000e+01	9.98928841e-01
6.05000000e+01	9.98899575e-01
6.15000000e+01	9.98869535e-01
6.25000000e+01	9.98838709e-01
6.35000000e+01	9.98807082e-01
6.45000000e+01	9.98774639e-01
6.55000000e+01	9.98741366e-01
6.65000000e+01	9.98707248e-01
6.75000000e+01	9.98672270e-01
6.85000000e+01	9.98636417e-01
6.95000000e+01	9.98599674e-01
7.05000000e+01	9.98562024e-01
7.15000000e+01	9.98523453e-01
7.25000000e+01	9.98483944e-01
7.35000000e+01	9.98443481e-01
7.45000000e+01	9.98402048e-01
7.55000000e+01	9.98359628e-01
7.65000000e+01	9.98316205e-01
7.75000000e+01	9.98271761e-01
7.85000000e+01	9.98226281e-01
7.95000000e+01	9.98179746e-01
8.05000000e+01	9.98132139e-01
8.15000000e+01	9.98083443e-01
8.25000000e+01	9.98033640e-01
8.35000000e+01	9.97982712e-01
8.45000000e+01	9.97930642e-01
8.55000000e+01	9.97877411e-01
8.65000000e+01	9.97823001e-01
8.75000000e+01	9.97767393e-01
8.85000000e+01	9.97710570e-01
8.95000000e+01	9.97652513e-01
9.05000000e+01	9.97593202e-01
9.15000000e+01	9.97532620e-01
9.25000000e+01	9.97470746e-01
9.35000000e+01	9.97407563e-01
9.45000000e+01	9.97343050e-01
9.55000000e+01	9.97277188e-01
9.65000000e+01	9.97209959e-01
9.75000000e+01	9.97141342e-01
9.85000000e+01	9.97071319e-01
9.95000000e+01	9.96999869e-01
1.00500000e+02	9.96926973e-01
1.01500000e+02	9.96852610e-01
1.02500000e+02	9.96776762e-01
1.03500000e+02	9.96699408e-01
1.04500000e+02	9.96620529e-01
1.05500000e+02	9.96540103e-01
1.06500000e+02	9.96458113e-01
1.07500000e+02	9.96374536e-01
1.08500000e+02	9.96289353e-01
1.09500000e+02	9.96202545e-01
1.10500000e+02	9.96114090e-01
1.11500000e+02	9.96023970e-01
1.12500000e+02	9.95932162e-01
1.13500000e+02	9.95838649e-01
1.14500000e+02	9.95743408e-01
1.15500000e+02	9.95646421e-01
1.16500000e+02	9.95547667e-01
1.17500000e+02	9.95447125e-01
1.18500000e+02	9.95344777e-01
1.19500000e+02	9.95240601e-01
1.20500000e+02	9.95134578e-01
1.21500000e+02	9.95026688e-01
1.22500000e+02	9.94916910e-01
1.23500000e+02	9.94805226e-01
1.24500000e+02	9.94691615e-01
1.25500000e+02	9.94576058e-01
1.26500000e+02	9.94458534e-01
1.27500000e+02	9.94339025e-01
1.28500000e+02	9.94217511e-01
1.29500000e+02	9.94093972e-01
1.30500000e+02	9.93968390e-01
1.31500000e+02	9.93840744e-01
1.32500000e+02	9.93711017e-01
1.33500000e+02	9.93579188e-01
1.34500000e+02	9.93445240e-01
1.35500000e+02	9.93309153e-01
1.36500000e+02	9.93170909e-01
1.37500000e+02	9.93030489e-01
1.38500000e+02	9.92887875e-01
1.39500000e+02	9.92743049e-01
1.40500000e+02	9.92595993e-01
1.41500000e+02	9.92446689e-01
1.42500000e+02	9.92295119e-01
1.43500000e+02	9.92141265e-01
1.44500000e+02	9.91985111e-01
1.45500000e+02	9.91826639e-01
1.46500000e+02	9.91665832e-01
1.47500000e+02	9.91502673e-01
1.48500000e+02	9.91337145e-01
1.49500000e+02	9.91169233e-01
1.50500000e+02	9.90998919e-01
1.51500000e+02	9.90826187e-01
1.52500000e+02	9.90651022e-01
1.53500000e+02	9.90473408e-01
1.54500000e+02	9.90293328e-01
1.55500000e+02	9.90110769e-01
1.56500000e+02	9.89925715e-01
1.57500000e+02	9.89738150e-01
1.58500000e+02	9.89548061e-01
1.59500000e+02	9.89355432e-01
1.60500000e+02	9.89160249e-01
1.61500000e+02	9.88962499e-01
1.62500000e+02	9.88762167e-01
1.63500000e+02	9.88559239e-01
1.64500000e+02	9.88353703e-01
1.65500000e+02	9.88145545e-01
1.66500000e+02	9.87934752e-01
1.67500000e+02	9.87721311e-01
1.68500000e+02	9.87505209e-01
1.69500000e+02	9.87286435e-01
1.70500000e+02	9.87064976e-01
1.71500000e+02	9.86840820e-01
1.72500000e+02	9.86613955e-01
1.73500000e+02	9.86384370e-01
1.74500000e+02	9.86152054e-01
1.75500000e+02	9.85916995e-01
1.76500000e+02	9.85679182e-01
1.77500000e+02	9.85438605e-01
1.78500000e+02	9.85195254e-01
1.79500000e+02	9.84949117e-01
1.80500000e+02	9.84700185e-01
1.81500000e+02	9.84448447e-01
1.82500000e+02	9.84193895e-01
1.83500000e+02	9.83936518e-01
1.84500000e+02	9.83676307e-01
1.85500000e+02	9.83413253e-01
1.86500000e+02	9.83147346e-01
1.87500000e+02	9.82878578e-01
1.88500000e+02	9.82606940e-01
1.89500000e+02	9.82332422e-01
1.90500000e+02	9.82055018e-01
1.91500000e+02	9.81774718e-01
1.92500000e+02	9.81491513e-01
1.93500000e+02	9.81205397e-01
1.94500000e+02	9.80916360e-01
1.95500000e+02	9.80624395e-01
1.96500000e+02	9.80329494e-01
1.97500000e+02	9.80031650e-01
1.98500000e+02	9.79730853e-01
1.99500000e+02	9.79427098e-01
2.00500000e+02	9.79120375e-01
2.01500000e+02	9.78810678e-01
2.02500000e+02	9.78498000e-01
2.03500000e+02	9.78182331e-01
2.04500000e+02	9.77863666e-01
2.05500000e+02	9.77541997e-01
2.06500000e+02	9.77217315e-01
2.07500000e+02	9.76889614e-01
2.08500000e+02	9.76558886e-01
2.09500000e+02	9.76225124e-01
2.10500000e+02	9.75888318e-01
2.11500000e+02	9.75548463e-01
2.12500000e+02	9.75205549e-01
2.13500000e+02	9.74859569e-01
2.14500000e+02	9.74510515e-01
2.15500000e+02	9.74158379e-01
2.16500000e+02	9.73803152e-01
2.17500000e+02	9.73444825e-01
2.18500000e+02	9.73083390e-01
2.19500000e+02	9.72718837e-01
2.20500000e+02	9.72351159e-01
2.21500000e+02	9.71980344e-01
2.22500000e+02	9.71606384e-01
2.23500000e+02	9.71229269e-01
2.24500000e+02	9.70848988e-01
2.25500000e+02	9.70465530e-01
2.26500000e+02	9.70078886e-01
2.27500000e+02	9.69689043e-01
2.28500000e+02	9.69295990e-01
2.29500000e+02	9.68899716e-01
2.30500000e+02	9.68500207e-01
2.31500000e+02	9.68097452e-01
2.32500000e+02	9.67691436e-01
2.33500000e+02	9.67282146e-01
2.34500000e+02	9.66869568e-01
2.35500000e+02	9.66453687e-01
2.36500000e+02	9.66034488e-01
2.37500000e+02	9.65611955e-01
2.38500000e+02	9.65186072e-01
2.39500000e+02	9.64756821e-01
2.40500000e+02	9.64324185e-01
2.41500000e+02	9.63888147e-01
2.42500000e+02	9.63448686e-01
2.43500000e+02	9.63005783e-01
2.44500000e+02	9.62559419e-01
2.45500000e+02	9.62109571e-01
2.46500000e+02	9.61656218e-01
2.47500000e+02	9.61199338e-01
2.48500000e+02	9.60738906e-01
2.49500000e+02	9.60274899e-01
2.50500000e+02	9.59807291e-01
2.51500000e+02	9.59336056e-01
2.52500000e+02	9.58861167e-01
2.53500000e+02	9.58382596e-01
2.54500000e+02	9.57900314e-01
2.55500000e+02	9.57414291e-01
2.56500000e+02	9.56924497e-01
2.57500000e+02	9.56430898e-01
2.58500000e+02	9.55933462e-01
2.59500000e+02	9.55432154e-01
2.60500000e+02	9.54926939e-01
2.61500000e+02	9.54417780e-01
2.62500000e+02	9.53904640e-01
2.63500000e+02	9.53387479e-01
2.64500000e+02	9.52866257e-01
2.65500000e+02	9.52340931e-01
2.66500000e+02	9.51811460e-01
2.67500000e+02	9.51277799e-01
2.68500000e+02	9.50739902e-01
2.69500000e+02	9.50197722e-01
2.70500000e+02	9.49651210e-01
2.71500000e+02	9.49100316e-01
2.72500000e+02	9.48544989e-01
2.73500000e+02	9.47985175e-01
2.74500000e+02	9.47420820e-01
2.75500000e+02	9.46851867e-01
2.76500000e+02	9.46278259e-01
2.77500000e+02	9.45699936e-01
2.78500000e+02	9.45116836e-01
2.79500000e+02	9.44528898e-01
2.80500000e+02	9.43936055e-01
2.81500000e+02	9.43338242e-01
2.82500000e+02	9.42735390e-01
2.83500000e+02	9.42127429e-01
2.84500000e+02	9.41514287e-01
2.85500000e+02	9.40895890e-01
2.86500000e+02	9.40272163e-01
2.87500000e+02	9.39643028e-01
2.88500000e+02	9.39008404e-01
2.89500000e+02	9.38368211e-01
2.90500000e+02	9.37722364e-01
2.91500000e+02	9.37070778e-01
2.92500000e+02	9.36413364e-01
2.93500000e+02	9.35750034e-01
2.94500000e+02	9.35080694e-01
2.95500000e+02	9.34405250e-01
2.96500000e+02	9.33723606e-01
2.97500000e+02	9.33035663e-01
2.98500000e+02	9.32341321e-01
2.99500000e+02	9.31640475e-01
3.00500000e+02	9.30933021e-01
3.01500000e+02	9.30218851e-01
3.02500000e+02	9.29497854e-01
3.03500000e+02	9.28769918e-01
3.04500000e+02	9.28034928e-01
3.05500000e+02	9.27292768e-01
3.06500000e+02	9.26543317e-01
3.07500000e+02	9.25786452e-01
3.08500000e+02	9.25022051e-01
3.09500000e+02	9.24249985e-01
3.10500000e+02	9.23470126e-01
3.11500000e+02	9.22682340e-01
3.12500000e+02	9.21886494e-01
3.13500000e+02	9.21082451e-01
3.14500000e+02	9.20270071e-01
3.15500000e+02	9.19449212e-01
3.16500000e+02	9.18619728e-01
3.17500000e+02	9.17781474e-01
3.18500000e+02	9.16934298e-01
3.19500000e+02	9.16078048e-01
3.20500000e+02	9.15212570e-01
3.21500000e+02	9.14337705e-01
3.22500000e+02	9.13453293e-01
3.23500000e+02	9.12559171e-01
3.24500000e+02	9.11655173e-01
3.25500000e+02	9.10741130e-01
3.26500000e+02	9.09816873e-01
3.27500000e+02	9.08882226e-01
3.28500000e+02	9.07937015e-01
3.29500000e+02	9.06981059e-01
3.30500000e+02	9.06014177e-01
3.31500000e+02	9.05036186e-01
3.32500000e+02	9.04046897e-01
3.33500000e+02	9.03046121e-01
3.34500000e+02	9.02033666e-01
3.35500000e+02	9.01009337e-01
3.36500000e+02	8.99972937e-01
3.37500000e+02	8.98924265e-01
3.38500000e+02	8.97863118e-01
3.39500000e+02	8.96789292e-01
3.40500000e+02	8.95702577e-01
3.41500000e+02	8.94602764e-01
3.42500000e+02	8.93489639e-01
3.43500000e+02	8.92362986e-01
3.44500000e+02	8.91222587e-01
3.45500000e+02	8.90068222e-01
3.46500000e+02	8.88899667e-01
3.47500000e+02	8.87716696e-01
3.48500000e+02	8.86519082e-01
3.49500000e+02	8.85306592e-01
3.50500000e+02	8.84078996e-01
3.51500000e+02	8.82836056e-01
3.52500000e+02	8.81577535e-01
3.53500000e+02	8.80303194e-01
3.54500000e+02	8.79012789e-01
3.55500000e+02	8.77706076e-01
3.56500000e+02	8.76382809e-01
3.57500000e+02	8.75042739e-01
3.58500000e+02	8.73685614e-01
3.59500000e+02	8.72311182e-01
3.60500000e+02	8.70919187e-01
3.61500000e+02	8.69509373e-01
3.62500000e+02	8.68081480e-01
3.63500000e+02	8.66635248e-01
3.64500000e+02	8.65170413e-01
3.65500000e+02	8.63686713e-01
3.66500000e+02	8.62183880e-01
3.67500000e+02	8.60661648e-01
3.68500000e+02	8.59119747e-01
3.69500000e+02	8.57557906e-01
3.70500000e+02	8.55975855e-01
3.71500000e+02	8.54373319e-01
3.72500000e+02	8.52750026e-01
3.73500000e+02	8.51105698e-01
3.74500000e+02	8.49440060e-01
3.75500000e+02	8.47752835e-01
3.76500000e+02	8.46043744e-01
3.77500000e+02	8.44312509e-01
3.78500000e+02	8.42558851e-01
3.79500000e+02	8.40782490e-01
3.80500000e+02	8.38983145e-01
3.81500000e+02	8.37160537e-01
3.82500000e+02	8.35314386e-01
3.83500000e+02	8.33444410e-01
3.84500000e+02	8.31550331e-01
3.85500000e+02	8.29631868e-01
3.86500000e+02	8.27688742e-01
3.87500000e+02	8.25720675e-01
3.88500000e+02	8.23727389e-01
3.89500000e+02	8.21708607e-01
3.90500000e+02	8.19664054e-01
3.91500000e+02	8.17593457e-01
3.92500000e+02	8.15496541e-01
3.93500000e+02	8.13373037e-01
3.94500000e+02	8.11222676e-01
3.95500000e+02	8.09045190e-01
3.96500000e+02	8.06840315e-01
3.97500000e+02	8.04607789e-01
3.98500000e+02	8.02347353e-01
3.99500000e+02	8.00058750e-01
4.00500000e+02	7.97741728e-01
4.01500000e+02	7.95396036e-01
4.02500000e+02	7.93021429e-01
4.03500000e+02	7.90617664e-01
4.04500000e+02	7.88184503e-01
4.05500000e+02	7.85721712e-01
4.06500000e+02	7.83229063e-01
4.07500000e+02	7.80706331e-01
4.08500000e+02	7.78153296e-01
4.09500000e+02	7.75569746e-01
4.10500000e+02	7.72955471e-01
4.11500000e+02	7.70310270e-01
4.12500000e+02	7.67633946e-01
4.13500000e+02	7.64926310e-01
4.14500000e+02	7.62187178e-01
4.15500000e+02	7.59416376e-01
4.16500000e+02	7.56613733e-01
4.17500000e+02	7.53779089e-01
4.18500000e+02	7.50912290e-01
4.19500000e+02	7.48013191e-01
4.20500000e+02	7.45081654e-01
4.21500000e+02	7.42117552e-01
4.22500000e+02	7.39120765e-01
4.23500000e+02	7.36091182e-01
4.24500000e+02	7.33028703e-01
4.25500000e+02	7.29933236e-01
4.26500000e+02	7.26804700e-01
4.27500000e+02	7.23643023e-01
4.28500000e+02	7.20448147e-01
4.29500000e+02	7.17220020e-01
4.30500000e+02	7.13958603e-01
4.31500000e+02	7.10663871e-01
4.32500000e+02	7.07335806e-01
4.33500000e+02	7.03974405e-01
4.34500000e+02	7.00579675e-01
4.35500000e+02	6.97151637e-01
4.36500000e+02	6.93690325e-01
4.37500000e+02	6.90195783e-01
4.38500000e+02	6.86668071e-01
4.39500000e+02	6.83107260e-01
4.40500000e+02	6.79513437e-01
4.41500000e+02	6.75886701e-01
4.42500000e+02	6.72227165e-01
4.43500000e+02	6.68534958e-01
4.44500000e+02	6.64810222e-01
4.45500000e+02	6.61053114e-01
4.46500000e+02	6.57263808e-01
4.47500000e+02	6.53442491e-01
4.48500000e+02	6.49589367e-01
4.49500000e+02	6.45704655e-01
4.50500000e+02	6.41788592e-01
4.51500000e+02	6.37841430e-01
4.52500000e+02	6.33863439e-01
4.53500000e+02	6.29854905e-01
4.54500000e+02	6.25816134e-01
4.55500000e+02	6.21747447e-01
4.56500000e+02	6.17649186e-01
4.57500000e+02	6.13521711e-01
4.58500000e+02	6.09365400e-01
4.59500000e+02	6.05180654e-01
4.60500000e+02	6.00967891e-01
4.61500000e+02	5.96727551e-01
4.62500000e+02	5.92460096e-01
4.63500000e+02	5.88166009e-01
4.64500000e+02	5.83845797e-01
4.65500000e+02	5.79499989e-01
4.66500000e+02	5.75129138e-01
4.67500000e+02	5.70733822e-01
4.68500000e+02	5.66314644e-01
4.69500000e+02	5.61872235e-01
4.70500000e+02	5.57407250e-01
4.71500000e+02	5.52920374e-01
4.72500000e+02	5.48412321e-01
4.73500000e+02	5.43883833e-01
4.74500000e+02	5.39335684e-01
4.75500000e+02	5.34768678e-01
4.76500000e+02	5.30183654e-01
4.77500000e+02	5.25581481e-01
4.78500000e+02	5.20963067e-01
4.79500000e+02	5.16329351e-01
4.80500000e+02	5.11681312e-01
4.81500000e+02	5.07019963e-01
4.82500000e+02	5.02346358e-01
4.83500000e+02	4.97661589e-01
4.84500000e+02	4.92966789e-01
4.85500000e+02	4.88263131e-01
4.86500000e+02	4.83551829e-01
4.87500000e+02	4.78834141e-01
4.88500000e+02	4.74111365e-01
4.89500000e+02	4.69384845e-01
4.90500000e+02	4.64655967e-01
4.91500000e+02	4.59926160e-01
4.92500000e+02	4.55196897e-01
4.93500000e+02	4.50469694e-01
4.94500000e+02	4.45746109e-01
4.95500000e+02	4.41027744e-01
4.96500000e+02	4.36316240e-01
4.97500000e+02	4.31613279e-01
4.98500000e+02	4.26920581e-01
4.99500000e+02	4.22239903e-01
5.00500000e+02	4.17573036e-01
5.01500000e+02	4.12921804e-01
5.02500000e+02	4.08288061e-01
5.03500000e+02	4.03673686e-01
5.04500000e+02	3.99080583e-01
5.05500000e+02	3.94510674e-01
5.06500000e+02	3.89965897e-01
5.07500000e+02	3.85448202e-01
5.08500000e+02	3.80959543e-01
5.09500000e+02	3.76501879e-01
5.10500000e+02	3.72077161e-01
5.11500000e+02	3.67687334e-01
5.12500000e+02	3.63334327e-01
5.13500000e+02	3.59020047e-01
5.14500000e+02	3.54746375e-01
5.15500000e+02	3.50515159e-01
5.16500000e+02	3.46328207e-01
5.17500000e+02	3.42187281e-01
5.18500000e+02	3.38094092e-01
5.19500000e+02	3.34050292e-01
5.20500000e+02	3.30057471e-01
5.21500000e+02	3.26117147e-01
5.22500000e+02	3.22230765e-01
5.23500000e+02	3.18399688e-01
5.24500000e+02	3.14625196e-01
5.25500000e+02	3.10908479e-01
5.26500000e+02	3.07250633e-01
5.27500000e+02	3.03652659e-01
5.28500000e+02	3.00115458e-01
5.29500000e+02	2.96639830e-01
5.30500000e+02	2.93226469e-01
5.31500000e+02	2.89875968e-01
5.32500000e+02	2.86588815e-01
5.33500000e+02	2.83365390e-01
5.34500000e+02	2.80205971e-01
5.35500000e+02	2.77110733e-01
5.36500000e+02	2.74079749e-01
5.37500000e+02	2.71112994e-01
5.38500000e+02	2.68210345e-01
5.39500000e+02	2.65371586e-01
5.40500000e+02	2.62596413e-01
5.41500000e+02	2.59884434e-01
5.42500000e+02	2.57235178e-01
5.43500000e+02	2.54648093e-01
5.44500000e+02	2.52122559e-01
5.45500000e+02	2.49657883e-01
5.46500000e+02	2.47253314e-01
5.47500000e+02	2.44908041e-01
5.48500000e+02	2.42621199e-01
5.49500000e+02	2.40391877e-01
5.50500000e+02	2.38219119e-01
5.51500000e+02	2.36101933e-01
5.52500000e+02	2.34039292e-01
5.53500000e+02	2.32030141e-01
5.54500000e+02	2.30073399e-01
5.55500000e+02	2.28167967e-01
5.56500000e+02	2.26312728e-01
5.57500000e+02	2.24506555e-01
5.58500000e+02	2.22748308e-01
5.59500000e+02	2.21036847e-01
5.60500000e+02	2.19371025e-01
5.61500000e+02	2.17749700e-01
5.62500000e+02	2.16171730e-01
5.63500000e+02	2.14635982e-01
5.64500000e+02	2.13141329e-01
5.65500000e+02	2.11686655e-01
5.66500000e+02	2.10270858e-01
5.67500000e+02	2.08892846e-01
5.68500000e+02	2.07551546e-01
5.69500000e+02	2.06245901e-01
5.70500000e+02	2.04974871e-01
5.71500000e+02	2.03737434e-01
5.72500000e+02	2.02532589e-01
5.73500000e+02	2.01359356e-01
5.74500000e+02	2.00216773e-01
5.75500000e+02	1.99103902e-01
5.76500000e+02	1.98019827e-01
5.77500000e+02	1.96963650e-01
5.78500000e+02	1.95934500e-01
5.79500000e+02	1.94931525e-01
5.80500000e+02	1.93953897e-01
5.81500000e+02	1.93000807e-01
5.82500000e+02	1.92071473e-01
5.83500000e+02	1.91165130e-01
5.84500000e+02	1.90281037e-01
5.85500000e+02	1.89418475e-01
5.86500000e+02	1.88576744e-01
5.87500000e+02	1.87755167e-01
5.88500000e+02	1.86953085e-01
5.89500000e+02	1.86169863e-01
5.90500000e+02	1.85404881e-01
5.91500000e+02	1.84657542e-01
5.92500000e+02	1.83927268e-01
5.93500000e+02	1.83213497e-01
5.94500000e+02	1.82515689e-01
5.95500000e+02	1.81833318e-01
5.96500000e+02	1.81165880e-01
5.97500000e+02	1.80512885e-01
5.98500000e+02	1.79873861e-01
5.99500000e+02	1.79248353e-01
6.00500000e+02	1.78635922e-01
6.01500000e+02	1.78036144e-01
6.02500000e+02	1.77448611e-01
6.03500000e+02	1.76872933e-01
6.04500000e+02	1.76308730e-01
6.05500000e+02	1.75755640e-01
6.06500000e+02	1.75213315e-01
6.07500000e+02	1.74681421e-01
6.08500000e+02	1.74159637e-01
6.09500000e+02	1.73647657e-01
6.10500000e+02	1.73145187e-01
6.11500000e+02	1.72651945e-01
6.12500000e+02	1.72167665e-01
6.13500000e+02	1.71692092e-01
6.14500000e+02	1.71224981e-01
6.15500000e+02	1.70766104e-01
6.16500000e+02	1.70315238e-01
6.17500000e+02	1.69872179e-01
6.18500000e+02	1.69436727e-01
6.19500000e+02	1.69008700e-01
6.20500000e+02	1.68587918e-01
6.21500000e+02	1.68174233e-01
6.22500000e+02	1.67767458e-01
6.23500000e+02	1.67367461e-01
6.24500000e+02	1.66974118e-01
6.25500000e+02	1.66587292e-01
6.26500000e+02	1.66206875e-01
6.27500000e+02	1.65832750e-01
6.28500000e+02	1.65464824e-01
6.29500000e+02	1.65102998e-01
6.30500000e+02	1.64747190e-01
6.31500000e+02	1.64397320e-01
6.32500000e+02	1.64053319e-01
6.33500000e+02	1.63715118e-01
6.34500000e+02	1.63382664e-01
6.35500000e+02	1.63055897e-01
6.36500000e+02	1.62734776e-01
6.37500000e+02	1.62419249e-01
6.38500000e+02	1.62109289e-01
6.39500000e+02	1.61804850e-01
6.40500000e+02	1.61505914e-01
6.41500000e+02	1.61212440e-01
6.42500000e+02	1.60924419e-01
6.43500000e+02	1.60641815e-01
6.44500000e+02	1.60364623e-01
6.45500000e+02	1.60092815e-01
6.46500000e+02	1.59826387e-01
6.47500000e+02	1.59565314e-01
6.48500000e+02	1.59309594e-01
6.49500000e+02	1.59059209e-01
6.50500000e+02	1.58814154e-01
6.51500000e+02	1.58574414e-01
6.52500000e+02	1.58339982e-01
6.53500000e+02	1.58110848e-01
6.54500000e+02	1.57887000e-01
6.55500000e+02	1.57668430e-01
6.56500000e+02	1.57455126e-01
6.57500000e+02	1.57247078e-01
6.58500000e+02	1.57044271e-01
6.59500000e+02	1.56846697e-01
6.60500000e+02	1.56654337e-01
