# Profil de Te au temps 1.800999999999969e-11 
# simu : /Volumes/MERCURE/JOBS/Zeq1_tanh_50mic_1p5e20_B0_20ps/GNU/Te@y-c.set
# col 0 : abscisse (um)
# col 1 : Te (keV)
5.00000000e-01	9.76347892e-01
1.50000000e+00	9.76346549e-01
2.50000000e+00	9.76343974e-01
3.50000000e+00	9.76340106e-01
4.50000000e+00	9.76334922e-01
5.50000000e+00	9.76328446e-01
6.50000000e+00	9.76320674e-01
7.50000000e+00	9.76311607e-01
8.50000000e+00	9.76301246e-01
9.50000000e+00	9.76289589e-01
1.05000000e+01	9.76276637e-01
1.15000000e+01	9.76262391e-01
1.25000000e+01	9.76246849e-01
1.35000000e+01	9.76230013e-01
1.45000000e+01	9.76211883e-01
1.55000000e+01	9.76192457e-01
1.65000000e+01	9.76171737e-01
1.75000000e+01	9.76149723e-01
1.85000000e+01	9.76126414e-01
1.95000000e+01	9.76101811e-01
2.05000000e+01	9.76075913e-01
2.15000000e+01	9.76048722e-01
2.25000000e+01	9.76020236e-01
2.35000000e+01	9.75990456e-01
2.45000000e+01	9.75959382e-01
2.55000000e+01	9.75927015e-01
2.65000000e+01	9.75893353e-01
2.75000000e+01	9.75858398e-01
2.85000000e+01	9.75822149e-01
2.95000000e+01	9.75784607e-01
3.05000000e+01	9.75745771e-01
3.15000000e+01	9.75705641e-01
3.25000000e+01	9.75664218e-01
3.35000000e+01	9.75621501e-01
3.45000000e+01	9.75577491e-01
3.55000000e+01	9.75532188e-01
3.65000000e+01	9.75485590e-01
3.75000000e+01	9.75437700e-01
3.85000000e+01	9.75388515e-01
3.95000000e+01	9.75338038e-01
4.05000000e+01	9.75286266e-01
4.15000000e+01	9.75233200e-01
4.25000000e+01	9.75178841e-01
4.35000000e+01	9.75123188e-01
4.45000000e+01	9.75066240e-01
4.55000000e+01	9.75007998e-01
4.65000000e+01	9.74948462e-01
4.75000000e+01	9.74887631e-01
4.85000000e+01	9.74825505e-01
4.95000000e+01	9.74762083e-01
5.05000000e+01	9.74697366e-01
5.15000000e+01	9.74631353e-01
5.25000000e+01	9.74564044e-01
5.35000000e+01	9.74495438e-01
5.45000000e+01	9.74425535e-01
5.55000000e+01	9.74354334e-01
5.65000000e+01	9.74281835e-01
5.75000000e+01	9.74208038e-01
5.85000000e+01	9.74132941e-01
5.95000000e+01	9.74056544e-01
6.05000000e+01	9.73978847e-01
6.15000000e+01	9.73899849e-01
6.25000000e+01	9.73819548e-01
6.35000000e+01	9.73737945e-01
6.45000000e+01	9.73655038e-01
6.55000000e+01	9.73570827e-01
6.65000000e+01	9.73485309e-01
6.75000000e+01	9.73398486e-01
6.85000000e+01	9.73310354e-01
6.95000000e+01	9.73220914e-01
7.05000000e+01	9.73130163e-01
7.15000000e+01	9.73038102e-01
7.25000000e+01	9.72944727e-01
7.35000000e+01	9.72850039e-01
7.45000000e+01	9.72754035e-01
7.55000000e+01	9.72656714e-01
7.65000000e+01	9.72558074e-01
7.75000000e+01	9.72458114e-01
7.85000000e+01	9.72356832e-01
7.95000000e+01	9.72254226e-01
8.05000000e+01	9.72150294e-01
8.15000000e+01	9.72045034e-01
8.25000000e+01	9.71938444e-01
8.35000000e+01	9.71830523e-01
8.45000000e+01	9.71721267e-01
8.55000000e+01	9.71610674e-01
8.65000000e+01	9.71498742e-01
8.75000000e+01	9.71385469e-01
8.85000000e+01	9.71270852e-01
8.95000000e+01	9.71154887e-01
9.05000000e+01	9.71037573e-01
9.15000000e+01	9.70918906e-01
9.25000000e+01	9.70798884e-01
9.35000000e+01	9.70677503e-01
9.45000000e+01	9.70554760e-01
9.55000000e+01	9.70430652e-01
9.65000000e+01	9.70305175e-01
9.75000000e+01	9.70178326e-01
9.85000000e+01	9.70050101e-01
9.95000000e+01	9.69920497e-01
1.00500000e+02	9.69789509e-01
1.01500000e+02	9.69657133e-01
1.02500000e+02	9.69523366e-01
1.03500000e+02	9.69388203e-01
1.04500000e+02	9.69251640e-01
1.05500000e+02	9.69113672e-01
1.06500000e+02	9.68974294e-01
1.07500000e+02	9.68833503e-01
1.08500000e+02	9.68691292e-01
1.09500000e+02	9.68547658e-01
1.10500000e+02	9.68402594e-01
1.11500000e+02	9.68256096e-01
1.12500000e+02	9.68108158e-01
1.13500000e+02	9.67958775e-01
1.14500000e+02	9.67807940e-01
1.15500000e+02	9.67655649e-01
1.16500000e+02	9.67501895e-01
1.17500000e+02	9.67346671e-01
1.18500000e+02	9.67189972e-01
1.19500000e+02	9.67031791e-01
1.20500000e+02	9.66872122e-01
1.21500000e+02	9.66710958e-01
1.22500000e+02	9.66548291e-01
1.23500000e+02	9.66384116e-01
1.24500000e+02	9.66218424e-01
1.25500000e+02	9.66051209e-01
1.26500000e+02	9.65882462e-01
1.27500000e+02	9.65712176e-01
1.28500000e+02	9.65540344e-01
1.29500000e+02	9.65366956e-01
1.30500000e+02	9.65192006e-01
1.31500000e+02	9.65015484e-01
1.32500000e+02	9.64837383e-01
1.33500000e+02	9.64657693e-01
1.34500000e+02	9.64476405e-01
1.35500000e+02	9.64293511e-01
1.36500000e+02	9.64109001e-01
1.37500000e+02	9.63922866e-01
1.38500000e+02	9.63735097e-01
1.39500000e+02	9.63545683e-01
1.40500000e+02	9.63354614e-01
1.41500000e+02	9.63161881e-01
1.42500000e+02	9.62967473e-01
1.43500000e+02	9.62771380e-01
1.44500000e+02	9.62573591e-01
1.45500000e+02	9.62374096e-01
1.46500000e+02	9.62172882e-01
1.47500000e+02	9.61969939e-01
1.48500000e+02	9.61765256e-01
1.49500000e+02	9.61558821e-01
1.50500000e+02	9.61350622e-01
1.51500000e+02	9.61140647e-01
1.52500000e+02	9.60928884e-01
1.53500000e+02	9.60715320e-01
1.54500000e+02	9.60499943e-01
1.55500000e+02	9.60282741e-01
1.56500000e+02	9.60063699e-01
1.57500000e+02	9.59842806e-01
1.58500000e+02	9.59620047e-01
1.59500000e+02	9.59395409e-01
1.60500000e+02	9.59168878e-01
1.61500000e+02	9.58940440e-01
1.62500000e+02	9.58710082e-01
1.63500000e+02	9.58477788e-01
1.64500000e+02	9.58243543e-01
1.65500000e+02	9.58007334e-01
1.66500000e+02	9.57769145e-01
1.67500000e+02	9.57528961e-01
1.68500000e+02	9.57286766e-01
1.69500000e+02	9.57042544e-01
1.70500000e+02	9.56796281e-01
1.71500000e+02	9.56547959e-01
1.72500000e+02	9.56297562e-01
1.73500000e+02	9.56045074e-01
1.74500000e+02	9.55790478e-01
1.75500000e+02	9.55533757e-01
1.76500000e+02	9.55274893e-01
1.77500000e+02	9.55013870e-01
1.78500000e+02	9.54750670e-01
1.79500000e+02	9.54485274e-01
1.80500000e+02	9.54217665e-01
1.81500000e+02	9.53947824e-01
1.82500000e+02	9.53675734e-01
1.83500000e+02	9.53401374e-01
1.84500000e+02	9.53124725e-01
1.85500000e+02	9.52845770e-01
1.86500000e+02	9.52564487e-01
1.87500000e+02	9.52280858e-01
1.88500000e+02	9.51994861e-01
1.89500000e+02	9.51706478e-01
1.90500000e+02	9.51415687e-01
1.91500000e+02	9.51122468e-01
1.92500000e+02	9.50826799e-01
1.93500000e+02	9.50528661e-01
1.94500000e+02	9.50228031e-01
1.95500000e+02	9.49924887e-01
1.96500000e+02	9.49619207e-01
1.97500000e+02	9.49310969e-01
1.98500000e+02	9.49000150e-01
1.99500000e+02	9.48686728e-01
2.00500000e+02	9.48370679e-01
2.01500000e+02	9.48051980e-01
2.02500000e+02	9.47730607e-01
2.03500000e+02	9.47406537e-01
2.04500000e+02	9.47079745e-01
2.05500000e+02	9.46750206e-01
2.06500000e+02	9.46417897e-01
2.07500000e+02	9.46082791e-01
2.08500000e+02	9.45744864e-01
2.09500000e+02	9.45404090e-01
2.10500000e+02	9.45060443e-01
2.11500000e+02	9.44713897e-01
2.12500000e+02	9.44364425e-01
2.13500000e+02	9.44012001e-01
2.14500000e+02	9.43656597e-01
2.15500000e+02	9.43298187e-01
2.16500000e+02	9.42936742e-01
2.17500000e+02	9.42572234e-01
2.18500000e+02	9.42204635e-01
2.19500000e+02	9.41833916e-01
2.20500000e+02	9.41460049e-01
2.21500000e+02	9.41083003e-01
2.22500000e+02	9.40702750e-01
2.23500000e+02	9.40319259e-01
2.24500000e+02	9.39932500e-01
2.25500000e+02	9.39542442e-01
2.26500000e+02	9.39149054e-01
2.27500000e+02	9.38752305e-01
2.28500000e+02	9.38352163e-01
2.29500000e+02	9.37948596e-01
2.30500000e+02	9.37541571e-01
2.31500000e+02	9.37131056e-01
2.32500000e+02	9.36717017e-01
2.33500000e+02	9.36299421e-01
2.34500000e+02	9.35878234e-01
2.35500000e+02	9.35453421e-01
2.36500000e+02	9.35024948e-01
2.37500000e+02	9.34592779e-01
2.38500000e+02	9.34156880e-01
2.39500000e+02	9.33717214e-01
2.40500000e+02	9.33273744e-01
2.41500000e+02	9.32826434e-01
2.42500000e+02	9.32375247e-01
2.43500000e+02	9.31920145e-01
2.44500000e+02	9.31461091e-01
2.45500000e+02	9.30998045e-01
2.46500000e+02	9.30530969e-01
2.47500000e+02	9.30059823e-01
2.48500000e+02	9.29584568e-01
2.49500000e+02	9.29105163e-01
2.50500000e+02	9.28621568e-01
2.51500000e+02	9.28133742e-01
2.52500000e+02	9.27641642e-01
2.53500000e+02	9.27145228e-01
2.54500000e+02	9.26644455e-01
2.55500000e+02	9.26139282e-01
2.56500000e+02	9.25629664e-01
2.57500000e+02	9.25115557e-01
2.58500000e+02	9.24596918e-01
2.59500000e+02	9.24073700e-01
2.60500000e+02	9.23545859e-01
2.61500000e+02	9.23013348e-01
2.62500000e+02	9.22476121e-01
2.63500000e+02	9.21934130e-01
2.64500000e+02	9.21387328e-01
2.65500000e+02	9.20835667e-01
2.66500000e+02	9.20279097e-01
2.67500000e+02	9.19717570e-01
2.68500000e+02	9.19151036e-01
2.69500000e+02	9.18579444e-01
2.70500000e+02	9.18002743e-01
2.71500000e+02	9.17420882e-01
2.72500000e+02	9.16833808e-01
2.73500000e+02	9.16241470e-01
2.74500000e+02	9.15643812e-01
2.75500000e+02	9.15040783e-01
2.76500000e+02	9.14432327e-01
2.77500000e+02	9.13818388e-01
2.78500000e+02	9.13198912e-01
2.79500000e+02	9.12573842e-01
2.80500000e+02	9.11943121e-01
2.81500000e+02	9.11306691e-01
2.82500000e+02	9.10664495e-01
2.83500000e+02	9.10016473e-01
2.84500000e+02	9.09362565e-01
2.85500000e+02	9.08702713e-01
2.86500000e+02	9.08036854e-01
2.87500000e+02	9.07364928e-01
2.88500000e+02	9.06686872e-01
2.89500000e+02	9.06002623e-01
2.90500000e+02	9.05312119e-01
2.91500000e+02	9.04615294e-01
2.92500000e+02	9.03912085e-01
2.93500000e+02	9.03202425e-01
2.94500000e+02	9.02486249e-01
2.95500000e+02	9.01763489e-01
2.96500000e+02	9.01034078e-01
2.97500000e+02	9.00297947e-01
2.98500000e+02	8.99555028e-01
2.99500000e+02	8.98805251e-01
3.00500000e+02	8.98048546e-01
3.01500000e+02	8.97284840e-01
3.02500000e+02	8.96514063e-01
3.03500000e+02	8.95736142e-01
3.04500000e+02	8.94951003e-01
3.05500000e+02	8.94158573e-01
3.06500000e+02	8.93358776e-01
3.07500000e+02	8.92551537e-01
3.08500000e+02	8.91736780e-01
3.09500000e+02	8.90914428e-01
3.10500000e+02	8.90084402e-01
3.11500000e+02	8.89246625e-01
3.12500000e+02	8.88401017e-01
3.13500000e+02	8.87547499e-01
3.14500000e+02	8.86685989e-01
3.15500000e+02	8.85816405e-01
3.16500000e+02	8.84938666e-01
3.17500000e+02	8.84052689e-01
3.18500000e+02	8.83158390e-01
3.19500000e+02	8.82255683e-01
3.20500000e+02	8.81344485e-01
3.21500000e+02	8.80424709e-01
3.22500000e+02	8.79496268e-01
3.23500000e+02	8.78559074e-01
3.24500000e+02	8.77613040e-01
3.25500000e+02	8.76658076e-01
3.26500000e+02	8.75694092e-01
3.27500000e+02	8.74720999e-01
3.28500000e+02	8.73738704e-01
3.29500000e+02	8.72747116e-01
3.30500000e+02	8.71746142e-01
3.31500000e+02	8.70735688e-01
3.32500000e+02	8.69715661e-01
3.33500000e+02	8.68685966e-01
3.34500000e+02	8.67646506e-01
3.35500000e+02	8.66597186e-01
3.36500000e+02	8.65537909e-01
3.37500000e+02	8.64468576e-01
3.38500000e+02	8.63389090e-01
3.39500000e+02	8.62299351e-01
3.40500000e+02	8.61199260e-01
3.41500000e+02	8.60088717e-01
3.42500000e+02	8.58967619e-01
3.43500000e+02	8.57835867e-01
3.44500000e+02	8.56693357e-01
3.45500000e+02	8.55539986e-01
3.46500000e+02	8.54375651e-01
3.47500000e+02	8.53200247e-01
3.48500000e+02	8.52013671e-01
3.49500000e+02	8.50815816e-01
3.50500000e+02	8.49606578e-01
3.51500000e+02	8.48385849e-01
3.52500000e+02	8.47153522e-01
3.53500000e+02	8.45909491e-01
3.54500000e+02	8.44653648e-01
3.55500000e+02	8.43385883e-01
3.56500000e+02	8.42106088e-01
3.57500000e+02	8.40814155e-01
3.58500000e+02	8.39509973e-01
3.59500000e+02	8.38193432e-01
3.60500000e+02	8.36864421e-01
3.61500000e+02	8.35522831e-01
3.62500000e+02	8.34168549e-01
3.63500000e+02	8.32801465e-01
3.64500000e+02	8.31421466e-01
3.65500000e+02	8.30028441e-01
3.66500000e+02	8.28622277e-01
3.67500000e+02	8.27202862e-01
3.68500000e+02	8.25770084e-01
3.69500000e+02	8.24323829e-01
3.70500000e+02	8.22863984e-01
3.71500000e+02	8.21390437e-01
3.72500000e+02	8.19903075e-01
3.73500000e+02	8.18401784e-01
3.74500000e+02	8.16886451e-01
3.75500000e+02	8.15356963e-01
3.76500000e+02	8.13813208e-01
3.77500000e+02	8.12255071e-01
3.78500000e+02	8.10682441e-01
3.79500000e+02	8.09095204e-01
3.80500000e+02	8.07493249e-01
3.81500000e+02	8.05876462e-01
3.82500000e+02	8.04244732e-01
3.83500000e+02	8.02597948e-01
3.84500000e+02	8.00935997e-01
3.85500000e+02	7.99258769e-01
3.86500000e+02	7.97566154e-01
3.87500000e+02	7.95858041e-01
3.88500000e+02	7.94134320e-01
3.89500000e+02	7.92394884e-01
3.90500000e+02	7.90639623e-01
3.91500000e+02	7.88868429e-01
3.92500000e+02	7.87081196e-01
3.93500000e+02	7.85277817e-01
3.94500000e+02	7.83458187e-01
3.95500000e+02	7.81622200e-01
3.96500000e+02	7.79769753e-01
3.97500000e+02	7.77900743e-01
3.98500000e+02	7.76015067e-01
3.99500000e+02	7.74112625e-01
4.00500000e+02	7.72193317e-01
4.01500000e+02	7.70257043e-01
4.02500000e+02	7.68303706e-01
4.03500000e+02	7.66333209e-01
4.04500000e+02	7.64345457e-01
4.05500000e+02	7.62340355e-01
4.06500000e+02	7.60317812e-01
4.07500000e+02	7.58277736e-01
4.08500000e+02	7.56220036e-01
4.09500000e+02	7.54144625e-01
4.10500000e+02	7.52051416e-01
4.11500000e+02	7.49940323e-01
4.12500000e+02	7.47811263e-01
4.13500000e+02	7.45664154e-01
4.14500000e+02	7.43498916e-01
4.15500000e+02	7.41315471e-01
4.16500000e+02	7.39113741e-01
4.17500000e+02	7.36893654e-01
4.18500000e+02	7.34655135e-01
4.19500000e+02	7.32398115e-01
4.20500000e+02	7.30122525e-01
4.21500000e+02	7.27828299e-01
4.22500000e+02	7.25515373e-01
4.23500000e+02	7.23183684e-01
4.24500000e+02	7.20833174e-01
4.25500000e+02	7.18463784e-01
4.26500000e+02	7.16075461e-01
4.27500000e+02	7.13668151e-01
4.28500000e+02	7.11241805e-01
4.29500000e+02	7.08796377e-01
4.30500000e+02	7.06331820e-01
4.31500000e+02	7.03848093e-01
4.32500000e+02	7.01345158e-01
4.33500000e+02	6.98822978e-01
4.34500000e+02	6.96281519e-01
4.35500000e+02	6.93720752e-01
4.36500000e+02	6.91140648e-01
4.37500000e+02	6.88541183e-01
4.38500000e+02	6.85922337e-01
4.39500000e+02	6.83284092e-01
4.40500000e+02	6.80626432e-01
4.41500000e+02	6.77949347e-01
4.42500000e+02	6.75252829e-01
4.43500000e+02	6.72536874e-01
4.44500000e+02	6.69801481e-01
4.45500000e+02	6.67046654e-01
4.46500000e+02	6.64272400e-01
4.47500000e+02	6.61478728e-01
4.48500000e+02	6.58665655e-01
4.49500000e+02	6.55833200e-01
4.50500000e+02	6.52981385e-01
4.51500000e+02	6.50110238e-01
4.52500000e+02	6.47219792e-01
4.53500000e+02	6.44310082e-01
4.54500000e+02	6.41381150e-01
4.55500000e+02	6.38433043e-01
4.56500000e+02	6.35465811e-01
4.57500000e+02	6.32479510e-01
4.58500000e+02	6.29474202e-01
4.59500000e+02	6.26449954e-01
4.60500000e+02	6.23406838e-01
4.61500000e+02	6.20344933e-01
4.62500000e+02	6.17264323e-01
4.63500000e+02	6.14165098e-01
4.64500000e+02	6.11047356e-01
4.65500000e+02	6.07911199e-01
4.66500000e+02	6.04756738e-01
4.67500000e+02	6.01584090e-01
4.68500000e+02	5.98393380e-01
4.69500000e+02	5.95184739e-01
4.70500000e+02	5.91958309e-01
4.71500000e+02	5.88714236e-01
4.72500000e+02	5.85452678e-01
4.73500000e+02	5.82173800e-01
4.74500000e+02	5.78877775e-01
4.75500000e+02	5.75564788e-01
4.76500000e+02	5.72235032e-01
4.77500000e+02	5.68888710e-01
4.78500000e+02	5.65526035e-01
4.79500000e+02	5.62147234e-01
4.80500000e+02	5.58752540e-01
4.81500000e+02	5.55342203e-01
4.82500000e+02	5.51916481e-01
4.83500000e+02	5.48475646e-01
4.84500000e+02	5.45019984e-01
4.85500000e+02	5.41549792e-01
4.86500000e+02	5.38065383e-01
4.87500000e+02	5.34567083e-01
4.88500000e+02	5.31055233e-01
4.89500000e+02	5.27530191e-01
4.90500000e+02	5.23992328e-01
4.91500000e+02	5.20442033e-01
4.92500000e+02	5.16879712e-01
4.93500000e+02	5.13305788e-01
4.94500000e+02	5.09720701e-01
4.95500000e+02	5.06124910e-01
4.96500000e+02	5.02518895e-01
4.97500000e+02	4.98903151e-01
4.98500000e+02	4.95278197e-01
4.99500000e+02	4.91644570e-01
5.00500000e+02	4.88002829e-01
5.01500000e+02	4.84353553e-01
5.02500000e+02	4.80697344e-01
5.03500000e+02	4.77034827e-01
5.04500000e+02	4.73366646e-01
5.05500000e+02	4.69693472e-01
5.06500000e+02	4.66015997e-01
5.07500000e+02	4.62334936e-01
5.08500000e+02	4.58651029e-01
5.09500000e+02	4.54965039e-01
5.10500000e+02	4.51277753e-01
5.11500000e+02	4.47589982e-01
5.12500000e+02	4.43902562e-01
5.13500000e+02	4.40216350e-01
5.14500000e+02	4.36532230e-01
5.15500000e+02	4.32851107e-01
5.16500000e+02	4.29173911e-01
5.17500000e+02	4.25501591e-01
5.18500000e+02	4.21835122e-01
5.19500000e+02	4.18175497e-01
5.20500000e+02	4.14523732e-01
5.21500000e+02	4.10880860e-01
5.22500000e+02	4.07247936e-01
5.23500000e+02	4.03626028e-01
5.24500000e+02	4.00016222e-01
5.25500000e+02	3.96419621e-01
5.26500000e+02	3.92837337e-01
5.27500000e+02	3.89270495e-01
5.28500000e+02	3.85720231e-01
5.29500000e+02	3.82187686e-01
5.30500000e+02	3.78674008e-01
5.31500000e+02	3.75180348e-01
5.32500000e+02	3.71707858e-01
5.33500000e+02	3.68257688e-01
5.34500000e+02	3.64830986e-01
5.35500000e+02	3.61428891e-01
5.36500000e+02	3.58052534e-01
5.37500000e+02	3.54703036e-01
5.38500000e+02	3.51381499e-01
5.39500000e+02	3.48089011e-01
5.40500000e+02	3.44826638e-01
5.41500000e+02	3.41595425e-01
5.42500000e+02	3.38396387e-01
5.43500000e+02	3.35230516e-01
5.44500000e+02	3.32098767e-01
5.45500000e+02	3.29002064e-01
5.46500000e+02	3.25941294e-01
5.47500000e+02	3.22917305e-01
5.48500000e+02	3.19930903e-01
5.49500000e+02	3.16982853e-01
5.50500000e+02	3.14073870e-01
5.51500000e+02	3.11204628e-01
5.52500000e+02	3.08375746e-01
5.53500000e+02	3.05587798e-01
5.54500000e+02	3.02841304e-01
5.55500000e+02	3.00136732e-01
5.56500000e+02	2.97474498e-01
5.57500000e+02	2.94854963e-01
5.58500000e+02	2.92278437e-01
5.59500000e+02	2.89745172e-01
5.60500000e+02	2.87255371e-01
5.61500000e+02	2.84809182e-01
5.62500000e+02	2.82406699e-01
5.63500000e+02	2.80047967e-01
5.64500000e+02	2.77732979e-01
5.65500000e+02	2.75461678e-01
5.66500000e+02	2.73233962e-01
5.67500000e+02	2.71049679e-01
5.68500000e+02	2.68908635e-01
5.69500000e+02	2.66810591e-01
5.70500000e+02	2.64755269e-01
5.71500000e+02	2.62742352e-01
5.72500000e+02	2.60771484e-01
5.73500000e+02	2.58842277e-01
5.74500000e+02	2.56954309e-01
5.75500000e+02	2.55107128e-01
5.76500000e+02	2.53300255e-01
5.77500000e+02	2.51533184e-01
5.78500000e+02	2.49805386e-01
5.79500000e+02	2.48116311e-01
5.80500000e+02	2.46465390e-01
5.81500000e+02	2.44852036e-01
5.82500000e+02	2.43275648e-01
5.83500000e+02	2.41735612e-01
5.84500000e+02	2.40231302e-01
5.85500000e+02	2.38762084e-01
5.86500000e+02	2.37327317e-01
5.87500000e+02	2.35926353e-01
5.88500000e+02	2.34558540e-01
5.89500000e+02	2.33223224e-01
5.90500000e+02	2.31919751e-01
5.91500000e+02	2.30647465e-01
5.92500000e+02	2.29405713e-01
5.93500000e+02	2.28193844e-01
5.94500000e+02	2.27011210e-01
5.95500000e+02	2.25857169e-01
5.96500000e+02	2.24731085e-01
5.97500000e+02	2.23632327e-01
5.98500000e+02	2.22560271e-01
5.99500000e+02	2.21514302e-01
6.00500000e+02	2.20493813e-01
6.01500000e+02	2.19498206e-01
6.02500000e+02	2.18526893e-01
6.03500000e+02	2.17579294e-01
6.04500000e+02	2.16654841e-01
6.05500000e+02	2.15752977e-01
6.06500000e+02	2.14873154e-01
6.07500000e+02	2.14014835e-01
6.08500000e+02	2.13177497e-01
6.09500000e+02	2.12360624e-01
6.10500000e+02	2.11563715e-01
6.11500000e+02	2.10786279e-01
6.12500000e+02	2.10027836e-01
6.13500000e+02	2.09287918e-01
6.14500000e+02	2.08566068e-01
6.15500000e+02	2.07861841e-01
6.16500000e+02	2.07174802e-01
6.17500000e+02	2.06504529e-01
6.18500000e+02	2.05850609e-01
6.19500000e+02	2.05212641e-01
6.20500000e+02	2.04590236e-01
6.21500000e+02	2.03983013e-01
6.22500000e+02	2.03390603e-01
6.23500000e+02	2.02812647e-01
6.24500000e+02	2.02248796e-01
6.25500000e+02	2.01698713e-01
6.26500000e+02	2.01162066e-01
6.27500000e+02	2.00638538e-01
6.28500000e+02	2.00127817e-01
6.29500000e+02	1.99629602e-01
6.30500000e+02	1.99143602e-01
6.31500000e+02	1.98669534e-01
6.32500000e+02	1.98207121e-01
6.33500000e+02	1.97756099e-01
6.34500000e+02	1.97316209e-01
6.35500000e+02	1.96887200e-01
6.36500000e+02	1.96468831e-01
6.37500000e+02	1.96060866e-01
6.38500000e+02	1.95663078e-01
6.39500000e+02	1.95275247e-01
6.40500000e+02	1.94897160e-01
6.41500000e+02	1.94528611e-01
6.42500000e+02	1.94169399e-01
6.43500000e+02	1.93819333e-01
6.44500000e+02	1.93478224e-01
6.45500000e+02	1.93145894e-01
6.46500000e+02	1.92822167e-01
6.47500000e+02	1.92506874e-01
6.48500000e+02	1.92199854e-01
6.49500000e+02	1.91900947e-01
6.50500000e+02	1.91610003e-01
6.51500000e+02	1.91326875e-01
6.52500000e+02	1.91051421e-01
6.53500000e+02	1.90783504e-01
6.54500000e+02	1.90522994e-01
6.55500000e+02	1.90269762e-01
6.56500000e+02	1.90023686e-01
6.57500000e+02	1.89784649e-01
6.58500000e+02	1.89552536e-01
6.59500000e+02	1.89327239e-01
6.60500000e+02	1.89108653e-01
