# Profil de Te au temps 6.000000000000061e-12 
# simu : /Volumes/MERCURE/JOBS/Zeq1_tanh_50mic_1p5e20_B0_20ps/GNU/Te@y-c.set
# col 0 : abscisse (um)
# col 1 : Te (keV)
5.00000000e-01	9.99997636e-01
1.50000000e+00	9.99997629e-01
2.50000000e+00	9.99997623e-01
3.50000000e+00	9.99997613e-01
4.50000000e+00	9.99997598e-01
5.50000000e+00	9.99997578e-01
6.50000000e+00	9.99997555e-01
7.50000000e+00	9.99997527e-01
8.50000000e+00	9.99997496e-01
9.50000000e+00	9.99997460e-01
1.05000000e+01	9.99997421e-01
1.15000000e+01	9.99997377e-01
1.25000000e+01	9.99997329e-01
1.35000000e+01	9.99997277e-01
1.45000000e+01	9.99997220e-01
1.55000000e+01	9.99997159e-01
1.65000000e+01	9.99997093e-01
1.75000000e+01	9.99997023e-01
1.85000000e+01	9.99996948e-01
1.95000000e+01	9.99996868e-01
2.05000000e+01	9.99996783e-01
2.15000000e+01	9.99996692e-01
2.25000000e+01	9.99996597e-01
2.35000000e+01	9.99996496e-01
2.45000000e+01	9.99996389e-01
2.55000000e+01	9.99996277e-01
2.65000000e+01	9.99996158e-01
2.75000000e+01	9.99996034e-01
2.85000000e+01	9.99995903e-01
2.95000000e+01	9.99995766e-01
3.05000000e+01	9.99995622e-01
3.15000000e+01	9.99995471e-01
3.25000000e+01	9.99995312e-01
3.35000000e+01	9.99995146e-01
3.45000000e+01	9.99994973e-01
3.55000000e+01	9.99994791e-01
3.65000000e+01	9.99994601e-01
3.75000000e+01	9.99994403e-01
3.85000000e+01	9.99994195e-01
3.95000000e+01	9.99993979e-01
4.05000000e+01	9.99993752e-01
4.15000000e+01	9.99993516e-01
4.25000000e+01	9.99993270e-01
4.35000000e+01	9.99993012e-01
4.45000000e+01	9.99992744e-01
4.55000000e+01	9.99992464e-01
4.65000000e+01	9.99992172e-01
4.75000000e+01	9.99991868e-01
4.85000000e+01	9.99991550e-01
4.95000000e+01	9.99991220e-01
5.05000000e+01	9.99990875e-01
5.15000000e+01	9.99990516e-01
5.25000000e+01	9.99990141e-01
5.35000000e+01	9.99989751e-01
5.45000000e+01	9.99989345e-01
5.55000000e+01	9.99988922e-01
5.65000000e+01	9.99988481e-01
5.75000000e+01	9.99988022e-01
5.85000000e+01	9.99987544e-01
5.95000000e+01	9.99987046e-01
6.05000000e+01	9.99986528e-01
6.15000000e+01	9.99985988e-01
6.25000000e+01	9.99985427e-01
6.35000000e+01	9.99984842e-01
6.45000000e+01	9.99984233e-01
6.55000000e+01	9.99983599e-01
6.65000000e+01	9.99982939e-01
6.75000000e+01	9.99982252e-01
6.85000000e+01	9.99981538e-01
6.95000000e+01	9.99980794e-01
7.05000000e+01	9.99980019e-01
7.15000000e+01	9.99979214e-01
7.25000000e+01	9.99978375e-01
7.35000000e+01	9.99977503e-01
7.45000000e+01	9.99976595e-01
7.55000000e+01	9.99975650e-01
7.65000000e+01	9.99974667e-01
7.75000000e+01	9.99973644e-01
7.85000000e+01	9.99972580e-01
7.95000000e+01	9.99971473e-01
8.05000000e+01	9.99970321e-01
8.15000000e+01	9.99969122e-01
8.25000000e+01	9.99967876e-01
8.35000000e+01	9.99966579e-01
8.45000000e+01	9.99965229e-01
8.55000000e+01	9.99963826e-01
8.65000000e+01	9.99962366e-01
8.75000000e+01	9.99960847e-01
8.85000000e+01	9.99959268e-01
8.95000000e+01	9.99957625e-01
9.05000000e+01	9.99955916e-01
9.15000000e+01	9.99954139e-01
9.25000000e+01	9.99952291e-01
9.35000000e+01	9.99950369e-01
9.45000000e+01	9.99948370e-01
9.55000000e+01	9.99946292e-01
9.65000000e+01	9.99944131e-01
9.75000000e+01	9.99941883e-01
9.85000000e+01	9.99939546e-01
9.95000000e+01	9.99937116e-01
1.00500000e+02	9.99934590e-01
1.01500000e+02	9.99931964e-01
1.02500000e+02	9.99929233e-01
1.03500000e+02	9.99926395e-01
1.04500000e+02	9.99923444e-01
1.05500000e+02	9.99920376e-01
1.06500000e+02	9.99917188e-01
1.07500000e+02	9.99913874e-01
1.08500000e+02	9.99910429e-01
1.09500000e+02	9.99906849e-01
1.10500000e+02	9.99903128e-01
1.11500000e+02	9.99899261e-01
1.12500000e+02	9.99895243e-01
1.13500000e+02	9.99891068e-01
1.14500000e+02	9.99886730e-01
1.15500000e+02	9.99882222e-01
1.16500000e+02	9.99877539e-01
1.17500000e+02	9.99872673e-01
1.18500000e+02	9.99867619e-01
1.19500000e+02	9.99862368e-01
1.20500000e+02	9.99856914e-01
1.21500000e+02	9.99851249e-01
1.22500000e+02	9.99845366e-01
1.23500000e+02	9.99839255e-01
1.24500000e+02	9.99832910e-01
1.25500000e+02	9.99826321e-01
1.26500000e+02	9.99819479e-01
1.27500000e+02	9.99812375e-01
1.28500000e+02	9.99804999e-01
1.29500000e+02	9.99797342e-01
1.30500000e+02	9.99789394e-01
1.31500000e+02	9.99781144e-01
1.32500000e+02	9.99772581e-01
1.33500000e+02	9.99763693e-01
1.34500000e+02	9.99754470e-01
1.35500000e+02	9.99744899e-01
1.36500000e+02	9.99734968e-01
1.37500000e+02	9.99724665e-01
1.38500000e+02	9.99713975e-01
1.39500000e+02	9.99702886e-01
1.40500000e+02	9.99691383e-01
1.41500000e+02	9.99679452e-01
1.42500000e+02	9.99667079e-01
1.43500000e+02	9.99654247e-01
1.44500000e+02	9.99640941e-01
1.45500000e+02	9.99627145e-01
1.46500000e+02	9.99612842e-01
1.47500000e+02	9.99598014e-01
1.48500000e+02	9.99582644e-01
1.49500000e+02	9.99566714e-01
1.50500000e+02	9.99550203e-01
1.51500000e+02	9.99533094e-01
1.52500000e+02	9.99515366e-01
1.53500000e+02	9.99496999e-01
1.54500000e+02	9.99477971e-01
1.55500000e+02	9.99458260e-01
1.56500000e+02	9.99437844e-01
1.57500000e+02	9.99416701e-01
1.58500000e+02	9.99394806e-01
1.59500000e+02	9.99372135e-01
1.60500000e+02	9.99348663e-01
1.61500000e+02	9.99324365e-01
1.62500000e+02	9.99299214e-01
1.63500000e+02	9.99273184e-01
1.64500000e+02	9.99246245e-01
1.65500000e+02	9.99218372e-01
1.66500000e+02	9.99189533e-01
1.67500000e+02	9.99159699e-01
1.68500000e+02	9.99128839e-01
1.69500000e+02	9.99096922e-01
1.70500000e+02	9.99063917e-01
1.71500000e+02	9.99029789e-01
1.72500000e+02	9.98994505e-01
1.73500000e+02	9.98958030e-01
1.74500000e+02	9.98920329e-01
1.75500000e+02	9.98881367e-01
1.76500000e+02	9.98841105e-01
1.77500000e+02	9.98799506e-01
1.78500000e+02	9.98756531e-01
1.79500000e+02	9.98712140e-01
1.80500000e+02	9.98666294e-01
1.81500000e+02	9.98618951e-01
1.82500000e+02	9.98570068e-01
1.83500000e+02	9.98519603e-01
1.84500000e+02	9.98467511e-01
1.85500000e+02	9.98413748e-01
1.86500000e+02	9.98358268e-01
1.87500000e+02	9.98301023e-01
1.88500000e+02	9.98241968e-01
1.89500000e+02	9.98181053e-01
1.90500000e+02	9.98118228e-01
1.91500000e+02	9.98053444e-01
1.92500000e+02	9.97986649e-01
1.93500000e+02	9.97917791e-01
1.94500000e+02	9.97846817e-01
1.95500000e+02	9.97773672e-01
1.96500000e+02	9.97698303e-01
1.97500000e+02	9.97620653e-01
1.98500000e+02	9.97540666e-01
1.99500000e+02	9.97458283e-01
2.00500000e+02	9.97373447e-01
2.01500000e+02	9.97286098e-01
2.02500000e+02	9.97196176e-01
2.03500000e+02	9.97103619e-01
2.04500000e+02	9.97008365e-01
2.05500000e+02	9.96910352e-01
2.06500000e+02	9.96809516e-01
2.07500000e+02	9.96705791e-01
2.08500000e+02	9.96599114e-01
2.09500000e+02	9.96489416e-01
2.10500000e+02	9.96376632e-01
2.11500000e+02	9.96260693e-01
2.12500000e+02	9.96141531e-01
2.13500000e+02	9.96019075e-01
2.14500000e+02	9.95893257e-01
2.15500000e+02	9.95764005e-01
2.16500000e+02	9.95631247e-01
2.17500000e+02	9.95494911e-01
2.18500000e+02	9.95354923e-01
2.19500000e+02	9.95211211e-01
2.20500000e+02	9.95063699e-01
2.21500000e+02	9.94912313e-01
2.22500000e+02	9.94756977e-01
2.23500000e+02	9.94597615e-01
2.24500000e+02	9.94434150e-01
2.25500000e+02	9.94266505e-01
2.26500000e+02	9.94094602e-01
2.27500000e+02	9.93918362e-01
2.28500000e+02	9.93737708e-01
2.29500000e+02	9.93552559e-01
2.30500000e+02	9.93362836e-01
2.31500000e+02	9.93168458e-01
2.32500000e+02	9.92969347e-01
2.33500000e+02	9.92765420e-01
2.34500000e+02	9.92556598e-01
2.35500000e+02	9.92342797e-01
2.36500000e+02	9.92123938e-01
2.37500000e+02	9.91899938e-01
2.38500000e+02	9.91670715e-01
2.39500000e+02	9.91436186e-01
2.40500000e+02	9.91196271e-01
2.41500000e+02	9.90950885e-01
2.42500000e+02	9.90699947e-01
2.43500000e+02	9.90443374e-01
2.44500000e+02	9.90181084e-01
2.45500000e+02	9.89912993e-01
2.46500000e+02	9.89639019e-01
2.47500000e+02	9.89359080e-01
2.48500000e+02	9.89073093e-01
2.49500000e+02	9.88780975e-01
2.50500000e+02	9.88482644e-01
2.51500000e+02	9.88178018e-01
2.52500000e+02	9.87867015e-01
2.53500000e+02	9.87549554e-01
2.54500000e+02	9.87225551e-01
2.55500000e+02	9.86894927e-01
2.56500000e+02	9.86557600e-01
2.57500000e+02	9.86213489e-01
2.58500000e+02	9.85862514e-01
2.59500000e+02	9.85504593e-01
2.60500000e+02	9.85139648e-01
2.61500000e+02	9.84767599e-01
2.62500000e+02	9.84388366e-01
2.63500000e+02	9.84001870e-01
2.64500000e+02	9.83608033e-01
2.65500000e+02	9.83206777e-01
2.66500000e+02	9.82798024e-01
2.67500000e+02	9.82381696e-01
2.68500000e+02	9.81957716e-01
2.69500000e+02	9.81526008e-01
2.70500000e+02	9.81086496e-01
2.71500000e+02	9.80639104e-01
2.72500000e+02	9.80183756e-01
2.73500000e+02	9.79720377e-01
2.74500000e+02	9.79248893e-01
2.75500000e+02	9.78769229e-01
2.76500000e+02	9.78281312e-01
2.77500000e+02	9.77785067e-01
2.78500000e+02	9.77280422e-01
2.79500000e+02	9.76767305e-01
2.80500000e+02	9.76245641e-01
2.81500000e+02	9.75715359e-01
2.82500000e+02	9.75176387e-01
2.83500000e+02	9.74628653e-01
2.84500000e+02	9.74072085e-01
2.85500000e+02	9.73506611e-01
2.86500000e+02	9.72932162e-01
2.87500000e+02	9.72348664e-01
2.88500000e+02	9.71756048e-01
2.89500000e+02	9.71154241e-01
2.90500000e+02	9.70543173e-01
2.91500000e+02	9.69922772e-01
2.92500000e+02	9.69292967e-01
2.93500000e+02	9.68653686e-01
2.94500000e+02	9.68004859e-01
2.95500000e+02	9.67346411e-01
2.96500000e+02	9.66678272e-01
2.97500000e+02	9.66000368e-01
2.98500000e+02	9.65312625e-01
2.99500000e+02	9.64614971e-01
3.00500000e+02	9.63907331e-01
3.01500000e+02	9.63189628e-01
3.02500000e+02	9.62461789e-01
3.03500000e+02	9.61723735e-01
3.04500000e+02	9.60975390e-01
3.05500000e+02	9.60216674e-01
3.06500000e+02	9.59447508e-01
3.07500000e+02	9.58667811e-01
3.08500000e+02	9.57877500e-01
3.09500000e+02	9.57076493e-01
3.10500000e+02	9.56264704e-01
3.11500000e+02	9.55442046e-01
3.12500000e+02	9.54608432e-01
3.13500000e+02	9.53763771e-01
3.14500000e+02	9.52907972e-01
3.15500000e+02	9.52040941e-01
3.16500000e+02	9.51162581e-01
3.17500000e+02	9.50272796e-01
3.18500000e+02	9.49371483e-01
3.19500000e+02	9.48458541e-01
3.20500000e+02	9.47533864e-01
3.21500000e+02	9.46597344e-01
3.22500000e+02	9.45648870e-01
3.23500000e+02	9.44688329e-01
3.24500000e+02	9.43715602e-01
3.25500000e+02	9.42730572e-01
3.26500000e+02	9.41733113e-01
3.27500000e+02	9.40723099e-01
3.28500000e+02	9.39700401e-01
3.29500000e+02	9.38664883e-01
3.30500000e+02	9.37616409e-01
3.31500000e+02	9.36554835e-01
3.32500000e+02	9.35480017e-01
3.33500000e+02	9.34391804e-01
3.34500000e+02	9.33290041e-01
3.35500000e+02	9.32174570e-01
3.36500000e+02	9.31045226e-01
3.37500000e+02	9.29901840e-01
3.38500000e+02	9.28744241e-01
3.39500000e+02	9.27572248e-01
3.40500000e+02	9.26385678e-01
3.41500000e+02	9.25184342e-01
3.42500000e+02	9.23968046e-01
3.43500000e+02	9.22736589e-01
3.44500000e+02	9.21489764e-01
3.45500000e+02	9.20227362e-01
3.46500000e+02	9.18949162e-01
3.47500000e+02	9.17654943e-01
3.48500000e+02	9.16344472e-01
3.49500000e+02	9.15017515e-01
3.50500000e+02	9.13673828e-01
3.51500000e+02	9.12313161e-01
3.52500000e+02	9.10935258e-01
3.53500000e+02	9.09539856e-01
3.54500000e+02	9.08126685e-01
3.55500000e+02	9.06695468e-01
3.56500000e+02	9.05245921e-01
3.57500000e+02	9.03777753e-01
3.58500000e+02	9.02290666e-01
3.59500000e+02	9.00784353e-01
3.60500000e+02	8.99258503e-01
3.61500000e+02	8.97712794e-01
3.62500000e+02	8.96146899e-01
3.63500000e+02	8.94560482e-01
3.64500000e+02	8.92953201e-01
3.65500000e+02	8.91324706e-01
3.66500000e+02	8.89674639e-01
3.67500000e+02	8.88002634e-01
3.68500000e+02	8.86308319e-01
3.69500000e+02	8.84591314e-01
3.70500000e+02	8.82851232e-01
3.71500000e+02	8.81087676e-01
3.72500000e+02	8.79300247e-01
3.73500000e+02	8.77488534e-01
3.74500000e+02	8.75652120e-01
3.75500000e+02	8.73790584e-01
3.76500000e+02	8.71903495e-01
3.77500000e+02	8.69990416e-01
3.78500000e+02	8.68050904e-01
3.79500000e+02	8.66084511e-01
3.80500000e+02	8.64090780e-01
3.81500000e+02	8.62069251e-01
3.82500000e+02	8.60019456e-01
3.83500000e+02	8.57940923e-01
3.84500000e+02	8.55833176e-01
3.85500000e+02	8.53695733e-01
3.86500000e+02	8.51528106e-01
3.87500000e+02	8.49329806e-01
3.88500000e+02	8.47100339e-01
3.89500000e+02	8.44839207e-01
3.90500000e+02	8.42545911e-01
3.91500000e+02	8.40219947e-01
3.92500000e+02	8.37860811e-01
3.93500000e+02	8.35467996e-01
3.94500000e+02	8.33040997e-01
3.95500000e+02	8.30579304e-01
3.96500000e+02	8.28082411e-01
3.97500000e+02	8.25549811e-01
3.98500000e+02	8.22980998e-01
3.99500000e+02	8.20375468e-01
4.00500000e+02	8.17732721e-01
4.01500000e+02	8.15052257e-01
4.02500000e+02	8.12333583e-01
4.03500000e+02	8.09576210e-01
4.04500000e+02	8.06779652e-01
4.05500000e+02	8.03943430e-01
4.06500000e+02	8.01067074e-01
4.07500000e+02	7.98150120e-01
4.08500000e+02	7.95192110e-01
4.09500000e+02	7.92192598e-01
4.10500000e+02	7.89151147e-01
4.11500000e+02	7.86067331e-01
4.12500000e+02	7.82940735e-01
4.13500000e+02	7.79770957e-01
4.14500000e+02	7.76557608e-01
4.15500000e+02	7.73300314e-01
4.16500000e+02	7.69998714e-01
4.17500000e+02	7.66652466e-01
4.18500000e+02	7.63261242e-01
4.19500000e+02	7.59824733e-01
4.20500000e+02	7.56342649e-01
4.21500000e+02	7.52814719e-01
4.22500000e+02	7.49240692e-01
4.23500000e+02	7.45620340e-01
4.24500000e+02	7.41953456e-01
4.25500000e+02	7.38239856e-01
4.26500000e+02	7.34479380e-01
4.27500000e+02	7.30671894e-01
4.28500000e+02	7.26817288e-01
4.29500000e+02	7.22915481e-01
4.30500000e+02	7.18966417e-01
4.31500000e+02	7.14970069e-01
4.32500000e+02	7.10926441e-01
4.33500000e+02	7.06835564e-01
4.34500000e+02	7.02697501e-01
4.35500000e+02	6.98512347e-01
4.36500000e+02	6.94280228e-01
4.37500000e+02	6.90001303e-01
4.38500000e+02	6.85675767e-01
4.39500000e+02	6.81303845e-01
4.40500000e+02	6.76885802e-01
4.41500000e+02	6.72421933e-01
4.42500000e+02	6.67912575e-01
4.43500000e+02	6.63358097e-01
4.44500000e+02	6.58758909e-01
4.45500000e+02	6.54115456e-01
4.46500000e+02	6.49428225e-01
4.47500000e+02	6.44697740e-01
4.48500000e+02	6.39924565e-01
4.49500000e+02	6.35109305e-01
4.50500000e+02	6.30252604e-01
4.51500000e+02	6.25355151e-01
4.52500000e+02	6.20417673e-01
4.53500000e+02	6.15440942e-01
4.54500000e+02	6.10425773e-01
4.55500000e+02	6.05373022e-01
4.56500000e+02	6.00283592e-01
4.57500000e+02	5.95158431e-01
4.58500000e+02	5.89998529e-01
4.59500000e+02	5.84804925e-01
4.60500000e+02	5.79578704e-01
4.61500000e+02	5.74320998e-01
4.62500000e+02	5.69032986e-01
4.63500000e+02	5.63715898e-01
4.64500000e+02	5.58371010e-01
4.65500000e+02	5.52999651e-01
4.66500000e+02	5.47603200e-01
4.67500000e+02	5.42183085e-01
4.68500000e+02	5.36740790e-01
4.69500000e+02	5.31277849e-01
4.70500000e+02	5.25795850e-01
4.71500000e+02	5.20296437e-01
4.72500000e+02	5.14781306e-01
4.73500000e+02	5.09252210e-01
4.74500000e+02	5.03710956e-01
4.75500000e+02	4.98159408e-01
4.76500000e+02	4.92599485e-01
4.77500000e+02	4.87033163e-01
4.78500000e+02	4.81462472e-01
4.79500000e+02	4.75889499e-01
4.80500000e+02	4.70316383e-01
4.81500000e+02	4.64745318e-01
4.82500000e+02	4.59178551e-01
4.83500000e+02	4.53618377e-01
4.84500000e+02	4.48067140e-01
4.85500000e+02	4.42527233e-01
4.86500000e+02	4.37001087e-01
4.87500000e+02	4.31491177e-01
4.88500000e+02	4.26000013e-01
4.89500000e+02	4.20530134e-01
4.90500000e+02	4.15084111e-01
4.91500000e+02	4.09664532e-01
4.92500000e+02	4.04274004e-01
4.93500000e+02	3.98915141e-01
4.94500000e+02	3.93590564e-01
4.95500000e+02	3.88302885e-01
4.96500000e+02	3.83054708e-01
4.97500000e+02	3.77848615e-01
4.98500000e+02	3.72687160e-01
4.99500000e+02	3.67572863e-01
5.00500000e+02	3.62508195e-01
5.01500000e+02	3.57495576e-01
5.02500000e+02	3.52537361e-01
5.03500000e+02	3.47635833e-01
5.04500000e+02	3.42793195e-01
5.05500000e+02	3.38011563e-01
5.06500000e+02	3.33292952e-01
5.07500000e+02	3.28639275e-01
5.08500000e+02	3.24052332e-01
5.09500000e+02	3.19533803e-01
5.10500000e+02	3.15085246e-01
5.11500000e+02	3.10708087e-01
5.12500000e+02	3.06403618e-01
5.13500000e+02	3.02172993e-01
5.14500000e+02	2.98017225e-01
5.15500000e+02	2.93937186e-01
5.16500000e+02	2.89933602e-01
5.17500000e+02	2.86007058e-01
5.18500000e+02	2.82157993e-01
5.19500000e+02	2.78386707e-01
5.20500000e+02	2.74693362e-01
5.21500000e+02	2.71077985e-01
5.22500000e+02	2.67540469e-01
5.23500000e+02	2.64080585e-01
5.24500000e+02	2.60697980e-01
5.25500000e+02	2.57392188e-01
5.26500000e+02	2.54162634e-01
5.27500000e+02	2.51008640e-01
5.28500000e+02	2.47929435e-01
5.29500000e+02	2.44924159e-01
5.30500000e+02	2.41991874e-01
5.31500000e+02	2.39131569e-01
5.32500000e+02	2.36342168e-01
5.33500000e+02	2.33622537e-01
5.34500000e+02	2.30971494e-01
5.35500000e+02	2.28387815e-01
5.36500000e+02	2.25870238e-01
5.37500000e+02	2.23417476e-01
5.38500000e+02	2.21028220e-01
5.39500000e+02	2.18701144e-01
5.40500000e+02	2.16434914e-01
5.41500000e+02	2.14228194e-01
5.42500000e+02	2.12079648e-01
5.43500000e+02	2.09987948e-01
5.44500000e+02	2.07951777e-01
5.45500000e+02	2.05969837e-01
5.46500000e+02	2.04040846e-01
5.47500000e+02	2.02163548e-01
5.48500000e+02	2.00336713e-01
5.49500000e+02	1.98559141e-01
5.50500000e+02	1.96829663e-01
5.51500000e+02	1.95147143e-01
5.52500000e+02	1.93510485e-01
5.53500000e+02	1.91918624e-01
5.54500000e+02	1.90370536e-01
5.55500000e+02	1.88865237e-01
5.56500000e+02	1.87401778e-01
5.57500000e+02	1.85979252e-01
5.58500000e+02	1.84596789e-01
5.59500000e+02	1.83253557e-01
5.60500000e+02	1.81948759e-01
5.61500000e+02	1.80681637e-01
5.62500000e+02	1.79451464e-01
5.63500000e+02	1.78257547e-01
5.64500000e+02	1.77099222e-01
5.65500000e+02	1.75975855e-01
5.66500000e+02	1.74886835e-01
5.67500000e+02	1.73831576e-01
5.68500000e+02	1.72809512e-01
5.69500000e+02	1.71820096e-01
5.70500000e+02	1.70862794e-01
5.71500000e+02	1.69937085e-01
5.72500000e+02	1.69042457e-01
5.73500000e+02	1.68178405e-01
5.74500000e+02	1.67344428e-01
5.75500000e+02	1.66540025e-01
5.76500000e+02	1.65764694e-01
5.77500000e+02	1.65017930e-01
5.78500000e+02	1.64299221e-01
5.79500000e+02	1.63608047e-01
5.80500000e+02	1.62943881e-01
5.81500000e+02	1.62306182e-01
5.82500000e+02	1.61694400e-01
5.83500000e+02	1.61107971e-01
5.84500000e+02	1.60546318e-01
5.85500000e+02	1.60008851e-01
5.86500000e+02	1.59494966e-01
5.87500000e+02	1.59004048e-01
5.88500000e+02	1.58535469e-01
5.89500000e+02	1.58088589e-01
5.90500000e+02	1.57662759e-01
5.91500000e+02	1.57257321e-01
5.92500000e+02	1.56871610e-01
5.93500000e+02	1.56504956e-01
5.94500000e+02	1.56156686e-01
5.95500000e+02	1.55826124e-01
5.96500000e+02	1.55512595e-01
5.97500000e+02	1.55215426e-01
5.98500000e+02	1.54933948e-01
5.99500000e+02	1.54667499e-01
6.00500000e+02	1.54415425e-01
6.01500000e+02	1.54177081e-01
6.02500000e+02	1.53951833e-01
6.03500000e+02	1.53739061e-01
6.04500000e+02	1.53538159e-01
6.05500000e+02	1.53348537e-01
6.06500000e+02	1.53169621e-01
6.07500000e+02	1.53000856e-01
6.08500000e+02	1.52841704e-01
6.09500000e+02	1.52691647e-01
6.10500000e+02	1.52550185e-01
6.11500000e+02	1.52416841e-01
6.12500000e+02	1.52291156e-01
6.13500000e+02	1.52172692e-01
6.14500000e+02	1.52061029e-01
6.15500000e+02	1.51955770e-01
6.16500000e+02	1.51856537e-01
6.17500000e+02	1.51762970e-01
6.18500000e+02	1.51674728e-01
6.19500000e+02	1.51591491e-01
6.20500000e+02	1.51512953e-01
6.21500000e+02	1.51438828e-01
6.22500000e+02	1.51368846e-01
6.23500000e+02	1.51302753e-01
6.24500000e+02	1.51240310e-01
6.25500000e+02	1.51181292e-01
6.26500000e+02	1.51125490e-01
6.27500000e+02	1.51072704e-01
6.28500000e+02	1.51022752e-01
6.29500000e+02	1.50975459e-01
6.30500000e+02	1.50930664e-01
6.31500000e+02	1.50888216e-01
6.32500000e+02	1.50847973e-01
6.33500000e+02	1.50809802e-01
6.34500000e+02	1.50773581e-01
6.35500000e+02	1.50739194e-01
6.36500000e+02	1.50706532e-01
6.37500000e+02	1.50675496e-01
6.38500000e+02	1.50645991e-01
6.39500000e+02	1.50617930e-01
6.40500000e+02	1.50591230e-01
6.41500000e+02	1.50565814e-01
6.42500000e+02	1.50541612e-01
6.43500000e+02	1.50518556e-01
6.44500000e+02	1.50496583e-01
6.45500000e+02	1.50475635e-01
6.46500000e+02	1.50455657e-01
6.47500000e+02	1.50436597e-01
6.48500000e+02	1.50418407e-01
6.49500000e+02	1.50401043e-01
6.50500000e+02	1.50384462e-01
6.51500000e+02	1.50368624e-01
6.52500000e+02	1.50353491e-01
6.53500000e+02	1.50339030e-01
6.54500000e+02	1.50325206e-01
6.55500000e+02	1.50311990e-01
6.56500000e+02	1.50299351e-01
6.57500000e+02	1.50287263e-01
6.58500000e+02	1.50275700e-01
6.59500000e+02	1.50264638e-01
6.60500000e+02	1.50254053e-01
