# Profil de FluxX au temps 1.000000000000012e-11 
# simu : /Volumes/MERCURE/JOBS/Zeq2_tanh_50mic_3p5e21_B0_20ps/GNU/FluxX@y-c.set
# col 0 : abscisse (um)
# col 1 : FluxX (W/cm2)
0.00000000e+00	0.00000000e+00
1.00000000e+00	4.18592487e+08
2.00000000e+00	8.31996474e+08
3.00000000e+00	1.25620424e+09
4.00000000e+00	1.67410131e+09
5.00000000e+00	2.09195547e+09
6.00000000e+00	2.51022831e+09
7.00000000e+00	2.92914840e+09
8.00000000e+00	3.34886117e+09
9.00000000e+00	3.76948626e+09
1.00000000e+01	4.19113828e+09
1.10000000e+01	4.61393145e+09
1.20000000e+01	5.03798007e+09
1.30000000e+01	5.46339855e+09
1.40000000e+01	5.89030144e+09
1.50000000e+01	6.31880343e+09
1.60000000e+01	6.74901931e+09
1.70000000e+01	7.18106406e+09
1.80000000e+01	7.61505283e+09
1.90000000e+01	8.05110096e+09
2.00000000e+01	8.48932398e+09
2.10000000e+01	8.92983773e+09
2.20000000e+01	9.37275830e+09
2.30000000e+01	9.81820208e+09
2.40000000e+01	1.02662858e+10
2.50000000e+01	1.07171266e+10
2.60000000e+01	1.11708419e+10
2.70000000e+01	1.16275498e+10
2.80000000e+01	1.20873686e+10
2.90000000e+01	1.25504174e+10
3.00000000e+01	1.30168156e+10
3.10000000e+01	1.34866835e+10
3.20000000e+01	1.39601418e+10
3.30000000e+01	1.44373121e+10
3.40000000e+01	1.49183166e+10
3.50000000e+01	1.54032784e+10
3.60000000e+01	1.58923215e+10
3.70000000e+01	1.63855708e+10
3.80000000e+01	1.68831522e+10
3.90000000e+01	1.73851925e+10
4.00000000e+01	1.78918198e+10
4.10000000e+01	1.84031633e+10
4.20000000e+01	1.89193535e+10
4.30000000e+01	1.94405220e+10
4.40000000e+01	1.99668020e+10
4.50000000e+01	2.04983281e+10
4.60000000e+01	2.10352364e+10
4.70000000e+01	2.15776646e+10
4.80000000e+01	2.21257522e+10
4.90000000e+01	2.26796402e+10
5.00000000e+01	2.32394719e+10
5.10000000e+01	2.38053920e+10
5.20000000e+01	2.43775478e+10
5.30000000e+01	2.49560883e+10
5.40000000e+01	2.55411649e+10
5.50000000e+01	2.61329313e+10
5.60000000e+01	2.67315437e+10
5.70000000e+01	2.73371607e+10
5.80000000e+01	2.79499437e+10
5.90000000e+01	2.85700566e+10
6.00000000e+01	2.91976664e+10
6.10000000e+01	2.98329429e+10
6.20000000e+01	3.04760591e+10
6.30000000e+01	3.11271912e+10
6.40000000e+01	3.17865186e+10
6.50000000e+01	3.24542243e+10
6.60000000e+01	3.31304947e+10
6.70000000e+01	3.38155203e+10
6.80000000e+01	3.45094949e+10
6.90000000e+01	3.52126167e+10
7.00000000e+01	3.59250878e+10
7.10000000e+01	3.66471146e+10
7.20000000e+01	3.73789080e+10
7.30000000e+01	3.81206833e+10
7.40000000e+01	3.88726604e+10
7.50000000e+01	3.96350644e+10
7.60000000e+01	4.04081250e+10
7.70000000e+01	4.11920772e+10
7.80000000e+01	4.19871614e+10
7.90000000e+01	4.27936232e+10
8.00000000e+01	4.36117140e+10
8.10000000e+01	4.44416909e+10
8.20000000e+01	4.52838170e+10
8.30000000e+01	4.61383614e+10
8.40000000e+01	4.70055995e+10
8.50000000e+01	4.78858132e+10
8.60000000e+01	4.87792909e+10
8.70000000e+01	4.96863278e+10
8.80000000e+01	5.06072262e+10
8.90000000e+01	5.15422953e+10
9.00000000e+01	5.24918518e+10
9.10000000e+01	5.34562198e+10
9.20000000e+01	5.44357310e+10
9.30000000e+01	5.54307251e+10
9.40000000e+01	5.64415499e+10
9.50000000e+01	5.74685612e+10
9.60000000e+01	5.85121232e+10
9.70000000e+01	5.95726092e+10
9.80000000e+01	6.06504007e+10
9.90000000e+01	6.17458887e+10
1.00000000e+02	6.28594730e+10
1.01000000e+02	6.39915633e+10
1.02000000e+02	6.51425785e+10
1.03000000e+02	6.63129475e+10
1.04000000e+02	6.75031094e+10
1.05000000e+02	6.87135133e+10
1.06000000e+02	6.99446191e+10
1.07000000e+02	7.11968973e+10
1.08000000e+02	7.24708291e+10
1.09000000e+02	7.37669074e+10
1.10000000e+02	7.50856361e+10
1.11000000e+02	7.64275310e+10
1.12000000e+02	7.77931197e+10
1.13000000e+02	7.91829420e+10
1.14000000e+02	8.05975503e+10
1.15000000e+02	8.20375096e+10
1.16000000e+02	8.35033977e+10
1.17000000e+02	8.49958059e+10
1.18000000e+02	8.65153391e+10
1.19000000e+02	8.80626156e+10
1.20000000e+02	8.96382684e+10
1.21000000e+02	9.12429445e+10
1.22000000e+02	9.28773060e+10
1.23000000e+02	9.45420297e+10
1.24000000e+02	9.62378081e+10
1.25000000e+02	9.79653494e+10
1.26000000e+02	9.97253779e+10
1.27000000e+02	1.01518634e+11
1.28000000e+02	1.03345876e+11
1.29000000e+02	1.05207878e+11
1.30000000e+02	1.07105433e+11
1.31000000e+02	1.09039350e+11
1.32000000e+02	1.11010459e+11
1.33000000e+02	1.13019608e+11
1.34000000e+02	1.15067662e+11
1.35000000e+02	1.17155509e+11
1.36000000e+02	1.19284056e+11
1.37000000e+02	1.21454230e+11
1.38000000e+02	1.23666979e+11
1.39000000e+02	1.25923273e+11
1.40000000e+02	1.28224105e+11
1.41000000e+02	1.30570490e+11
1.42000000e+02	1.32963465e+11
1.43000000e+02	1.35404093e+11
1.44000000e+02	1.37893460e+11
1.45000000e+02	1.40432677e+11
1.46000000e+02	1.43022881e+11
1.47000000e+02	1.45665234e+11
1.48000000e+02	1.48360926e+11
1.49000000e+02	1.51111174e+11
1.50000000e+02	1.53917223e+11
1.51000000e+02	1.56780347e+11
1.52000000e+02	1.59701849e+11
1.53000000e+02	1.62683063e+11
1.54000000e+02	1.65725353e+11
1.55000000e+02	1.68830115e+11
1.56000000e+02	1.71998778e+11
1.57000000e+02	1.75232804e+11
1.58000000e+02	1.78533689e+11
1.59000000e+02	1.81902964e+11
1.60000000e+02	1.85342196e+11
1.61000000e+02	1.88852988e+11
1.62000000e+02	1.92436981e+11
1.63000000e+02	1.96095856e+11
1.64000000e+02	1.99831330e+11
1.65000000e+02	2.03645165e+11
1.66000000e+02	2.07539160e+11
1.67000000e+02	2.11515159e+11
1.68000000e+02	2.15575049e+11
1.69000000e+02	2.19720762e+11
1.70000000e+02	2.23954275e+11
1.71000000e+02	2.28277612e+11
1.72000000e+02	2.32692845e+11
1.73000000e+02	2.37202095e+11
1.74000000e+02	2.41807533e+11
1.75000000e+02	2.46511382e+11
1.76000000e+02	2.51315917e+11
1.77000000e+02	2.56223469e+11
1.78000000e+02	2.61236423e+11
1.79000000e+02	2.66357219e+11
1.80000000e+02	2.71588359e+11
1.81000000e+02	2.76932400e+11
1.82000000e+02	2.82391964e+11
1.83000000e+02	2.87969733e+11
1.84000000e+02	2.93668454e+11
1.85000000e+02	2.99490937e+11
1.86000000e+02	3.05440062e+11
1.87000000e+02	3.11518775e+11
1.88000000e+02	3.17730094e+11
1.89000000e+02	3.24077108e+11
1.90000000e+02	3.30562979e+11
1.91000000e+02	3.37190945e+11
1.92000000e+02	3.43964320e+11
1.93000000e+02	3.50886497e+11
1.94000000e+02	3.57960951e+11
1.95000000e+02	3.65191237e+11
1.96000000e+02	3.72580996e+11
1.97000000e+02	3.80133954e+11
1.98000000e+02	3.87853927e+11
1.99000000e+02	3.95744819e+11
2.00000000e+02	4.03810627e+11
2.01000000e+02	4.12055444e+11
2.02000000e+02	4.20483458e+11
2.03000000e+02	4.29098954e+11
2.04000000e+02	4.37906322e+11
2.05000000e+02	4.46910051e+11
2.06000000e+02	4.56114737e+11
2.07000000e+02	4.65525085e+11
2.08000000e+02	4.75145908e+11
2.09000000e+02	4.84982132e+11
2.10000000e+02	4.95038798e+11
2.11000000e+02	5.05321065e+11
2.12000000e+02	5.15834211e+11
2.13000000e+02	5.26583636e+11
2.14000000e+02	5.37574867e+11
2.15000000e+02	5.48813557e+11
2.16000000e+02	5.60305490e+11
2.17000000e+02	5.72056582e+11
2.18000000e+02	5.84072887e+11
2.19000000e+02	5.96360596e+11
2.20000000e+02	6.08926041e+11
2.21000000e+02	6.21775700e+11
2.22000000e+02	6.34916198e+11
2.23000000e+02	6.48354308e+11
2.24000000e+02	6.62096959e+11
2.25000000e+02	6.76151235e+11
2.26000000e+02	6.90524379e+11
2.27000000e+02	7.05223797e+11
2.28000000e+02	7.20257059e+11
2.29000000e+02	7.35631905e+11
2.30000000e+02	7.51356246e+11
2.31000000e+02	7.67438170e+11
2.32000000e+02	7.83885939e+11
2.33000000e+02	8.00708000e+11
2.34000000e+02	8.17912984e+11
2.35000000e+02	8.35509708e+11
2.36000000e+02	8.53507182e+11
2.37000000e+02	8.71914612e+11
2.38000000e+02	8.90741398e+11
2.39000000e+02	9.09997144e+11
2.40000000e+02	9.29691659e+11
2.41000000e+02	9.49834958e+11
2.42000000e+02	9.70437268e+11
2.43000000e+02	9.91509032e+11
2.44000000e+02	1.01306091e+12
2.45000000e+02	1.03510378e+12
2.46000000e+02	1.05764875e+12
2.47000000e+02	1.08070716e+12
2.48000000e+02	1.10429056e+12
2.49000000e+02	1.12841076e+12
2.50000000e+02	1.15307980e+12
2.51000000e+02	1.17830995e+12
2.52000000e+02	1.20411373e+12
2.53000000e+02	1.23050391e+12
2.54000000e+02	1.25749352e+12
2.55000000e+02	1.28509582e+12
2.56000000e+02	1.31332434e+12
2.57000000e+02	1.34219286e+12
2.58000000e+02	1.37171544e+12
2.59000000e+02	1.40190638e+12
2.60000000e+02	1.43278026e+12
2.61000000e+02	1.46435193e+12
2.62000000e+02	1.49663650e+12
2.63000000e+02	1.52964936e+12
2.64000000e+02	1.56340619e+12
2.65000000e+02	1.59792292e+12
2.66000000e+02	1.63321577e+12
2.67000000e+02	1.66930125e+12
2.68000000e+02	1.70619614e+12
2.69000000e+02	1.74391750e+12
2.70000000e+02	1.78248269e+12
2.71000000e+02	1.82190933e+12
2.72000000e+02	1.86221536e+12
2.73000000e+02	1.90341896e+12
2.74000000e+02	1.94553864e+12
2.75000000e+02	1.98859316e+12
2.76000000e+02	2.03260158e+12
2.77000000e+02	2.07758325e+12
2.78000000e+02	2.12355777e+12
2.79000000e+02	2.17054507e+12
2.80000000e+02	2.21856531e+12
2.81000000e+02	2.26763896e+12
2.82000000e+02	2.31778674e+12
2.83000000e+02	2.36902965e+12
2.84000000e+02	2.42138896e+12
2.85000000e+02	2.47488621e+12
2.86000000e+02	2.52954316e+12
2.87000000e+02	2.58538187e+12
2.88000000e+02	2.64242462e+12
2.89000000e+02	2.70069393e+12
2.90000000e+02	2.76021257e+12
2.91000000e+02	2.82100352e+12
2.92000000e+02	2.88308998e+12
2.93000000e+02	2.94649539e+12
2.94000000e+02	3.01124335e+12
2.95000000e+02	3.07735767e+12
2.96000000e+02	3.14486235e+12
2.97000000e+02	3.21378154e+12
2.98000000e+02	3.28413956e+12
2.99000000e+02	3.35596087e+12
3.00000000e+02	3.42927006e+12
3.01000000e+02	3.50409184e+12
3.02000000e+02	3.58045101e+12
3.03000000e+02	3.65837248e+12
3.04000000e+02	3.73788118e+12
3.05000000e+02	3.81900213e+12
3.06000000e+02	3.90176037e+12
3.07000000e+02	3.98618092e+12
3.08000000e+02	4.07228884e+12
3.09000000e+02	4.16010910e+12
3.10000000e+02	4.24966664e+12
3.11000000e+02	4.34098632e+12
3.12000000e+02	4.43409288e+12
3.13000000e+02	4.52901091e+12
3.14000000e+02	4.62576486e+12
3.15000000e+02	4.72437897e+12
3.16000000e+02	4.82487727e+12
3.17000000e+02	4.92728350e+12
3.18000000e+02	5.03162115e+12
3.19000000e+02	5.13791335e+12
3.20000000e+02	5.24618288e+12
3.21000000e+02	5.35645213e+12
3.22000000e+02	5.46874303e+12
3.23000000e+02	5.58307705e+12
3.24000000e+02	5.69947513e+12
3.25000000e+02	5.81795763e+12
3.26000000e+02	5.93854433e+12
3.27000000e+02	6.06125433e+12
3.28000000e+02	6.18610603e+12
3.29000000e+02	6.31311708e+12
3.30000000e+02	6.44230434e+12
3.31000000e+02	6.57368377e+12
3.32000000e+02	6.70727046e+12
3.33000000e+02	6.84307851e+12
3.34000000e+02	6.98112101e+12
3.35000000e+02	7.12140994e+12
3.36000000e+02	7.26395616e+12
3.37000000e+02	7.40876933e+12
3.38000000e+02	7.55585780e+12
3.39000000e+02	7.70522863e+12
3.40000000e+02	7.85688746e+12
3.41000000e+02	8.01083845e+12
3.42000000e+02	8.16708425e+12
3.43000000e+02	8.32562587e+12
3.44000000e+02	8.48646265e+12
3.45000000e+02	8.64959218e+12
3.46000000e+02	8.81501022e+12
3.47000000e+02	8.98271061e+12
3.48000000e+02	9.15268523e+12
3.49000000e+02	9.32492389e+12
3.50000000e+02	9.49941423e+12
3.51000000e+02	9.67614172e+12
3.52000000e+02	9.85508948e+12
3.53000000e+02	1.00362383e+13
3.54000000e+02	1.02195664e+13
3.55000000e+02	1.04050495e+13
3.56000000e+02	1.05926609e+13
3.57000000e+02	1.07823707e+13
3.58000000e+02	1.09741466e+13
3.59000000e+02	1.11679533e+13
3.60000000e+02	1.13637525e+13
3.61000000e+02	1.15615027e+13
3.62000000e+02	1.17611596e+13
3.63000000e+02	1.19626753e+13
3.64000000e+02	1.21659987e+13
3.65000000e+02	1.23710755e+13
3.66000000e+02	1.25778476e+13
3.67000000e+02	1.27862535e+13
3.68000000e+02	1.29962280e+13
3.69000000e+02	1.32077022e+13
3.70000000e+02	1.34206034e+13
3.71000000e+02	1.36348550e+13
3.72000000e+02	1.38503764e+13
3.73000000e+02	1.40670829e+13
3.74000000e+02	1.42848858e+13
3.75000000e+02	1.45036922e+13
3.76000000e+02	1.47234049e+13
3.77000000e+02	1.49439225e+13
3.78000000e+02	1.51651390e+13
3.79000000e+02	1.53869443e+13
3.80000000e+02	1.56092235e+13
3.81000000e+02	1.58318574e+13
3.82000000e+02	1.60547221e+13
3.83000000e+02	1.62776890e+13
3.84000000e+02	1.65006251e+13
3.85000000e+02	1.67233924e+13
3.86000000e+02	1.69458485e+13
3.87000000e+02	1.71678460e+13
3.88000000e+02	1.73892329e+13
3.89000000e+02	1.76098524e+13
3.90000000e+02	1.78295429e+13
3.91000000e+02	1.80481380e+13
3.92000000e+02	1.82654668e+13
3.93000000e+02	1.84813535e+13
3.94000000e+02	1.86956175e+13
3.95000000e+02	1.89080736e+13
3.96000000e+02	1.91185322e+13
3.97000000e+02	1.93267989e+13
3.98000000e+02	1.95326748e+13
3.99000000e+02	1.97359567e+13
4.00000000e+02	1.99364369e+13
4.01000000e+02	2.01339036e+13
4.02000000e+02	2.03281408e+13
4.03000000e+02	2.05189285e+13
4.04000000e+02	2.07060426e+13
4.05000000e+02	2.08892554e+13
4.06000000e+02	2.10683356e+13
4.07000000e+02	2.12430485e+13
4.08000000e+02	2.14131558e+13
4.09000000e+02	2.15784166e+13
4.10000000e+02	2.17385868e+13
4.11000000e+02	2.18934197e+13
4.12000000e+02	2.20426663e+13
4.13000000e+02	2.21860754e+13
4.14000000e+02	2.23233939e+13
4.15000000e+02	2.24543671e+13
4.16000000e+02	2.25787391e+13
4.17000000e+02	2.26962529e+13
4.18000000e+02	2.28066510e+13
4.19000000e+02	2.29096756e+13
4.20000000e+02	2.30050690e+13
4.21000000e+02	2.30925742e+13
4.22000000e+02	2.31719349e+13
4.23000000e+02	2.32428964e+13
4.24000000e+02	2.33052059e+13
4.25000000e+02	2.33586128e+13
4.26000000e+02	2.34028695e+13
4.27000000e+02	2.34377319e+13
4.28000000e+02	2.34629598e+13
4.29000000e+02	2.34783175e+13
4.30000000e+02	2.34835748e+13
4.31000000e+02	2.34785070e+13
4.32000000e+02	2.34628962e+13
4.33000000e+02	2.34365315e+13
4.34000000e+02	2.33992103e+13
4.35000000e+02	2.33507383e+13
4.36000000e+02	2.32909309e+13
4.37000000e+02	2.32196140e+13
4.38000000e+02	2.31366242e+13
4.39000000e+02	2.30418106e+13
4.40000000e+02	2.29350350e+13
4.41000000e+02	2.28161731e+13
4.42000000e+02	2.26851154e+13
4.43000000e+02	2.25417684e+13
4.44000000e+02	2.23860552e+13
4.45000000e+02	2.22179170e+13
4.46000000e+02	2.20373138e+13
4.47000000e+02	2.18442257e+13
4.48000000e+02	2.16386540e+13
4.49000000e+02	2.14206222e+13
4.50000000e+02	2.11901772e+13
4.51000000e+02	2.09473904e+13
4.52000000e+02	2.06923592e+13
4.53000000e+02	2.04252075e+13
4.54000000e+02	2.01460874e+13
4.55000000e+02	1.98551800e+13
4.56000000e+02	1.95526968e+13
4.57000000e+02	1.92388805e+13
4.58000000e+02	1.89140059e+13
4.59000000e+02	1.85783813e+13
4.60000000e+02	1.82323492e+13
4.61000000e+02	1.78762868e+13
4.62000000e+02	1.75106071e+13
4.63000000e+02	1.71357593e+13
4.64000000e+02	1.67522292e+13
4.65000000e+02	1.63605392e+13
4.66000000e+02	1.59612491e+13
4.67000000e+02	1.55549550e+13
4.68000000e+02	1.51422896e+13
4.69000000e+02	1.47239211e+13
4.70000000e+02	1.43005524e+13
4.71000000e+02	1.38729197e+13
4.72000000e+02	1.34417906e+13
4.73000000e+02	1.30079625e+13
4.74000000e+02	1.25722597e+13
4.75000000e+02	1.21355303e+13
4.76000000e+02	1.16986433e+13
4.77000000e+02	1.12624842e+13
4.78000000e+02	1.08279510e+13
4.79000000e+02	1.03959491e+13
4.80000000e+02	9.96738614e+12
4.81000000e+02	9.54316607e+12
4.82000000e+02	9.12418326e+12
4.83000000e+02	8.71131582e+12
4.84000000e+02	8.30541898e+12
4.85000000e+02	7.90731810e+12
4.86000000e+02	7.51780172e+12
4.87000000e+02	7.13761459e+12
4.88000000e+02	6.76745094e+12
4.89000000e+02	6.40794803e+12
4.90000000e+02	6.05968017e+12
4.91000000e+02	5.72315344e+12
4.92000000e+02	5.39880110e+12
4.93000000e+02	5.08697994e+12
4.94000000e+02	4.78796766e+12
4.95000000e+02	4.50196139e+12
4.96000000e+02	4.22907739e+12
4.97000000e+02	3.96935192e+12
4.98000000e+02	3.72274339e+12
4.99000000e+02	3.48913568e+12
5.00000000e+02	3.26834248e+12
5.01000000e+02	3.06011264e+12
5.02000000e+02	2.86413636e+12
5.03000000e+02	2.68005197e+12
5.04000000e+02	2.50745321e+12
5.05000000e+02	2.34589675e+12
5.06000000e+02	2.19490980e+12
5.07000000e+02	2.05399754e+12
5.08000000e+02	1.92265039e+12
5.09000000e+02	1.80035069e+12
5.10000000e+02	1.68657898e+12
5.11000000e+02	1.58081954e+12
5.12000000e+02	1.48256534e+12
5.13000000e+02	1.39132215e+12
5.14000000e+02	1.30661206e+12
5.15000000e+02	1.22797617e+12
5.16000000e+02	1.15497669e+12
5.17000000e+02	1.08719841e+12
5.18000000e+02	1.02424962e+12
5.19000000e+02	9.65762504e+11
5.20000000e+02	9.11393180e+11
5.21000000e+02	8.60821353e+11
5.22000000e+02	8.13749705e+11
5.23000000e+02	7.69903056e+11
5.24000000e+02	7.29027376e+11
5.25000000e+02	6.90888669e+11
5.26000000e+02	6.55271799e+11
5.27000000e+02	6.21979270e+11
5.28000000e+02	5.90830008e+11
5.29000000e+02	5.61658150e+11
5.30000000e+02	5.34311874e+11
5.31000000e+02	5.08652276e+11
5.32000000e+02	4.84552299e+11
5.33000000e+02	4.61895728e+11
5.34000000e+02	4.40576253e+11
5.35000000e+02	4.20496593e+11
5.36000000e+02	4.01567692e+11
5.37000000e+02	3.83707978e+11
5.38000000e+02	3.66842683e+11
5.39000000e+02	3.50903226e+11
5.40000000e+02	3.35826645e+11
5.41000000e+02	3.21555086e+11
5.42000000e+02	3.08035338e+11
5.43000000e+02	2.95218413e+11
5.44000000e+02	2.83059160e+11
5.45000000e+02	2.71515928e+11
5.46000000e+02	2.60550246e+11
5.47000000e+02	2.50126549e+11
5.48000000e+02	2.40211919e+11
5.49000000e+02	2.30775856e+11
5.50000000e+02	2.21790073e+11
5.51000000e+02	2.13228305e+11
5.52000000e+02	2.05066140e+11
5.53000000e+02	1.97280867e+11
5.54000000e+02	1.89851334e+11
5.55000000e+02	1.82757823e+11
5.56000000e+02	1.75981934e+11
5.57000000e+02	1.69506484e+11
5.58000000e+02	1.63315408e+11
5.59000000e+02	1.57393673e+11
5.60000000e+02	1.51727205e+11
5.61000000e+02	1.46302809e+11
5.62000000e+02	1.41108110e+11
5.63000000e+02	1.36131488e+11
5.64000000e+02	1.31362027e+11
5.65000000e+02	1.26789465e+11
5.66000000e+02	1.22404143e+11
5.67000000e+02	1.18196968e+11
5.68000000e+02	1.14159370e+11
5.69000000e+02	1.10283271e+11
5.70000000e+02	1.06561046e+11
5.71000000e+02	1.02985498e+11
5.72000000e+02	9.95498266e+10
5.73000000e+02	9.62476035e+10
5.74000000e+02	9.30727481e+10
5.75000000e+02	9.00195054e+10
5.76000000e+02	8.70824254e+10
5.77000000e+02	8.42563445e+10
5.78000000e+02	8.15363671e+10
5.79000000e+02	7.89178499e+10
5.80000000e+02	7.63963862e+10
5.81000000e+02	7.39677920e+10
5.82000000e+02	7.16280926e+10
5.83000000e+02	6.93735106e+10
5.84000000e+02	6.72004542e+10
5.85000000e+02	6.51055065e+10
5.86000000e+02	6.30854157e+10
5.87000000e+02	6.11370858e+10
5.88000000e+02	5.92575678e+10
5.89000000e+02	5.74440513e+10
5.90000000e+02	5.56938575e+10
5.91000000e+02	5.40044316e+10
5.92000000e+02	5.23733361e+10
5.93000000e+02	5.07982448e+10
5.94000000e+02	4.92769367e+10
5.95000000e+02	4.78072905e+10
5.96000000e+02	4.63872794e+10
5.97000000e+02	4.50149666e+10
5.98000000e+02	4.36884999e+10
5.99000000e+02	4.24061082e+10
6.00000000e+02	4.11660969e+10
6.01000000e+02	3.99668444e+10
6.02000000e+02	3.88067983e+10
6.03000000e+02	3.76844720e+10
6.04000000e+02	3.65984417e+10
6.05000000e+02	3.55473431e+10
6.06000000e+02	3.45298686e+10
6.07000000e+02	3.35447646e+10
6.08000000e+02	3.25908293e+10
6.09000000e+02	3.16669095e+10
6.10000000e+02	3.07718993e+10
6.11000000e+02	2.99047370e+10
6.12000000e+02	2.90644036e+10
6.13000000e+02	2.82499207e+10
6.14000000e+02	2.74603489e+10
6.15000000e+02	2.66947855e+10
6.16000000e+02	2.59523633e+10
6.17000000e+02	2.52322491e+10
6.18000000e+02	2.45336418e+10
6.19000000e+02	2.38557712e+10
6.20000000e+02	2.31978968e+10
6.21000000e+02	2.25593062e+10
6.22000000e+02	2.19393141e+10
6.23000000e+02	2.13372613e+10
6.24000000e+02	2.07525131e+10
6.25000000e+02	2.01844588e+10
6.26000000e+02	1.96325102e+10
6.27000000e+02	1.90961011e+10
6.28000000e+02	1.85746861e+10
6.29000000e+02	1.80677398e+10
6.30000000e+02	1.75747561e+10
6.31000000e+02	1.70952472e+10
6.32000000e+02	1.66287431e+10
6.33000000e+02	1.61747906e+10
6.34000000e+02	1.57329529e+10
6.35000000e+02	1.53028086e+10
6.36000000e+02	1.48839515e+10
6.37000000e+02	1.44759897e+10
6.38000000e+02	1.40785450e+10
6.39000000e+02	1.36912527e+10
6.40000000e+02	1.33137606e+10
6.41000000e+02	1.29457288e+10
6.42000000e+02	1.25868293e+10
6.43000000e+02	1.22367452e+10
6.44000000e+02	1.18951706e+10
6.45000000e+02	1.15618098e+10
6.46000000e+02	1.12363773e+10
6.47000000e+02	1.09185973e+10
6.48000000e+02	1.06082030e+10
6.49000000e+02	1.03049367e+10
6.50000000e+02	1.00085492e+10
6.51000000e+02	9.71879942e+09
6.52000000e+02	9.43545422e+09
6.53000000e+02	9.15828805e+09
6.54000000e+02	8.88708263e+09
6.55000000e+02	8.62162671e+09
6.56000000e+02	8.36171573e+09
6.57000000e+02	8.10715158e+09
6.58000000e+02	7.85774236e+09
6.59000000e+02	7.61330212e+09
