# Profil de FluxX au temps 4.000000000000029e-12 
# simu : /Volumes/MERCURE/JOBS/Zeq2_tanh_50mic_3p5e21_B0_20ps/GNU/FluxX@y-c.set
# col 0 : abscisse (um)
# col 1 : FluxX (W/cm2)
0.00000000e+00	0.00000000e+00
1.00000000e+00	4.08611396e+06
2.00000000e+00	2.86437213e+06
3.00000000e+00	1.22300069e+07
4.00000000e+00	1.49600076e+07
5.00000000e+00	1.72121056e+07
6.00000000e+00	1.93384557e+07
7.00000000e+00	2.14582619e+07
8.00000000e+00	2.36075386e+07
9.00000000e+00	2.57962532e+07
1.00000000e+01	2.80292069e+07
1.10000000e+01	3.03106175e+07
1.20000000e+01	3.26445387e+07
1.30000000e+01	3.50350884e+07
1.40000000e+01	3.74862758e+07
1.50000000e+01	4.00021485e+07
1.60000000e+01	4.25867012e+07
1.70000000e+01	4.52440260e+07
1.80000000e+01	4.79782392e+07
1.90000000e+01	5.07935003e+07
2.00000000e+01	5.36941168e+07
2.10000000e+01	5.66844494e+07
2.20000000e+01	5.97690623e+07
2.30000000e+01	6.29525782e+07
2.40000000e+01	6.62398479e+07
2.50000000e+01	6.96358535e+07
2.60000000e+01	7.31457704e+07
2.70000000e+01	7.67749857e+07
2.80000000e+01	8.05290660e+07
2.90000000e+01	8.44137696e+07
3.00000000e+01	8.84351164e+07
3.10000000e+01	9.25993606e+07
3.20000000e+01	9.69129701e+07
3.30000000e+01	1.01382675e+08
3.40000000e+01	1.06015493e+08
3.50000000e+01	1.10818683e+08
3.60000000e+01	1.15799813e+08
3.70000000e+01	1.20966711e+08
3.80000000e+01	1.26327587e+08
3.90000000e+01	1.31890867e+08
4.00000000e+01	1.37665388e+08
4.10000000e+01	1.43660336e+08
4.20000000e+01	1.49885203e+08
4.30000000e+01	1.56349894e+08
4.40000000e+01	1.63064696e+08
4.50000000e+01	1.70040294e+08
4.60000000e+01	1.77287836e+08
4.70000000e+01	1.84818831e+08
4.80000000e+01	1.92645325e+08
4.90000000e+01	2.00779809e+08
5.00000000e+01	2.09235238e+08
5.10000000e+01	2.18025179e+08
5.20000000e+01	2.27163582e+08
5.30000000e+01	2.36665114e+08
5.40000000e+01	2.46544937e+08
5.50000000e+01	2.56818841e+08
5.60000000e+01	2.67503259e+08
5.70000000e+01	2.78615242e+08
5.80000000e+01	2.90172550e+08
5.90000000e+01	3.02193687e+08
6.00000000e+01	3.14697873e+08
6.10000000e+01	3.27705057e+08
6.20000000e+01	3.41236087e+08
6.30000000e+01	3.55312563e+08
6.40000000e+01	3.69957012e+08
6.50000000e+01	3.85192816e+08
6.60000000e+01	4.01044349e+08
6.70000000e+01	4.17536958e+08
6.80000000e+01	4.34696995e+08
6.90000000e+01	4.52551879e+08
7.00000000e+01	4.71130178e+08
7.10000000e+01	4.90461548e+08
7.20000000e+01	5.10576904e+08
7.30000000e+01	5.31508389e+08
7.40000000e+01	5.53289469e+08
7.50000000e+01	5.75954937e+08
7.60000000e+01	5.99540995e+08
7.70000000e+01	6.24085329e+08
7.80000000e+01	6.49627139e+08
7.90000000e+01	6.76207269e+08
8.00000000e+01	7.03868117e+08
8.10000000e+01	7.32653897e+08
8.20000000e+01	7.62610587e+08
8.30000000e+01	7.93785991e+08
8.40000000e+01	8.26229910e+08
8.50000000e+01	8.59994122e+08
8.60000000e+01	8.95132528e+08
8.70000000e+01	9.31701232e+08
8.80000000e+01	9.69758587e+08
8.90000000e+01	1.00936531e+09
9.00000000e+01	1.05058461e+09
9.10000000e+01	1.09348225e+09
9.20000000e+01	1.13812667e+09
9.30000000e+01	1.18458904e+09
9.40000000e+01	1.23294350e+09
9.50000000e+01	1.28326714e+09
9.60000000e+01	1.33564017e+09
9.70000000e+01	1.39014608e+09
9.80000000e+01	1.44687175e+09
9.90000000e+01	1.50590757e+09
1.00000000e+02	1.56734758e+09
1.01000000e+02	1.63128968e+09
1.02000000e+02	1.69783569e+09
1.03000000e+02	1.76709154e+09
1.04000000e+02	1.83916752e+09
1.05000000e+02	1.91417835e+09
1.06000000e+02	1.99224336e+09
1.07000000e+02	2.07348676e+09
1.08000000e+02	2.15803779e+09
1.09000000e+02	2.24603086e+09
1.10000000e+02	2.33760585e+09
1.11000000e+02	2.43290830e+09
1.12000000e+02	2.53208965e+09
1.13000000e+02	2.63530742e+09
1.14000000e+02	2.74272550e+09
1.15000000e+02	2.85451442e+09
1.16000000e+02	2.97085153e+09
1.17000000e+02	3.09192141e+09
1.18000000e+02	3.21791602e+09
1.19000000e+02	3.34903510e+09
1.20000000e+02	3.48548643e+09
1.21000000e+02	3.62748615e+09
1.22000000e+02	3.77525904e+09
1.23000000e+02	3.92903897e+09
1.24000000e+02	4.08906923e+09
1.25000000e+02	4.25560285e+09
1.26000000e+02	4.42890301e+09
1.27000000e+02	4.60924346e+09
1.28000000e+02	4.79690894e+09
1.29000000e+02	4.99219553e+09
1.30000000e+02	5.19541123e+09
1.31000000e+02	5.40687633e+09
1.32000000e+02	5.62692394e+09
1.33000000e+02	5.85590042e+09
1.34000000e+02	6.09416600e+09
1.35000000e+02	6.34209525e+09
1.36000000e+02	6.60007764e+09
1.37000000e+02	6.86851813e+09
1.38000000e+02	7.14783781e+09
1.39000000e+02	7.43847446e+09
1.40000000e+02	7.74088320e+09
1.41000000e+02	8.05553722e+09
1.42000000e+02	8.38292837e+09
1.43000000e+02	8.72356799e+09
1.44000000e+02	9.07798755e+09
1.45000000e+02	9.44673950e+09
1.46000000e+02	9.83039800e+09
1.47000000e+02	1.02295598e+10
1.48000000e+02	1.06448450e+10
1.49000000e+02	1.10768981e+10
1.50000000e+02	1.15263887e+10
1.51000000e+02	1.19940125e+10
1.52000000e+02	1.24804926e+10
1.53000000e+02	1.29865799e+10
1.54000000e+02	1.35130545e+10
1.55000000e+02	1.40607270e+10
1.56000000e+02	1.46304390e+10
1.57000000e+02	1.52230648e+10
1.58000000e+02	1.58395124e+10
1.59000000e+02	1.64807246e+10
1.60000000e+02	1.71476802e+10
1.61000000e+02	1.78413956e+10
1.62000000e+02	1.85629260e+10
1.63000000e+02	1.93133667e+10
1.64000000e+02	2.00938544e+10
1.65000000e+02	2.09055690e+10
1.66000000e+02	2.17497348e+10
1.67000000e+02	2.26276223e+10
1.68000000e+02	2.35405493e+10
1.69000000e+02	2.44898831e+10
1.70000000e+02	2.54770419e+10
1.71000000e+02	2.65034965e+10
1.72000000e+02	2.75707719e+10
1.73000000e+02	2.86804495e+10
1.74000000e+02	2.98341687e+10
1.75000000e+02	3.10336287e+10
1.76000000e+02	3.22805906e+10
1.77000000e+02	3.35768793e+10
1.78000000e+02	3.49243856e+10
1.79000000e+02	3.63250681e+10
1.80000000e+02	3.77809555e+10
1.81000000e+02	3.92941486e+10
1.82000000e+02	4.08668224e+10
1.83000000e+02	4.25012287e+10
1.84000000e+02	4.41996979e+10
1.85000000e+02	4.59646418e+10
1.86000000e+02	4.77985553e+10
1.87000000e+02	4.97040196e+10
1.88000000e+02	5.16837038e+10
1.89000000e+02	5.37403678e+10
1.90000000e+02	5.58768647e+10
1.91000000e+02	5.80961434e+10
1.92000000e+02	6.04012508e+10
1.93000000e+02	6.27953345e+10
1.94000000e+02	6.52816458e+10
1.95000000e+02	6.78635415e+10
1.96000000e+02	7.05444870e+10
1.97000000e+02	7.33280591e+10
1.98000000e+02	7.62179481e+10
1.99000000e+02	7.92179607e+10
2.00000000e+02	8.23320228e+10
2.01000000e+02	8.55641819e+10
2.02000000e+02	8.89186098e+10
2.03000000e+02	9.23996051e+10
2.04000000e+02	9.60115964e+10
2.05000000e+02	9.97591439e+10
2.06000000e+02	1.03646943e+11
2.07000000e+02	1.07679826e+11
2.08000000e+02	1.11862766e+11
2.09000000e+02	1.16200878e+11
2.10000000e+02	1.20699420e+11
2.11000000e+02	1.25363801e+11
2.12000000e+02	1.30199577e+11
2.13000000e+02	1.35212458e+11
2.14000000e+02	1.40408305e+11
2.15000000e+02	1.45793140e+11
2.16000000e+02	1.51373142e+11
2.17000000e+02	1.57154650e+11
2.18000000e+02	1.63144168e+11
2.19000000e+02	1.69348364e+11
2.20000000e+02	1.75774075e+11
2.21000000e+02	1.82428305e+11
2.22000000e+02	1.89318231e+11
2.23000000e+02	1.96451201e+11
2.24000000e+02	2.03834739e+11
2.25000000e+02	2.11476544e+11
2.26000000e+02	2.19384494e+11
2.27000000e+02	2.27566644e+11
2.28000000e+02	2.36031233e+11
2.29000000e+02	2.44786679e+11
2.30000000e+02	2.53841584e+11
2.31000000e+02	2.63204736e+11
2.32000000e+02	2.72885108e+11
2.33000000e+02	2.82891857e+11
2.34000000e+02	2.93234330e+11
2.35000000e+02	3.03922064e+11
2.36000000e+02	3.14964782e+11
2.37000000e+02	3.26372400e+11
2.38000000e+02	3.38155023e+11
2.39000000e+02	3.50322949e+11
2.40000000e+02	3.62886668e+11
2.41000000e+02	3.75856864e+11
2.42000000e+02	3.89244413e+11
2.43000000e+02	4.03060386e+11
2.44000000e+02	4.17316051e+11
2.45000000e+02	4.32022869e+11
2.46000000e+02	4.47192500e+11
2.47000000e+02	4.62836798e+11
2.48000000e+02	4.78967819e+11
2.49000000e+02	4.95597815e+11
2.50000000e+02	5.12739239e+11
2.51000000e+02	5.30404746e+11
2.52000000e+02	5.48607193e+11
2.53000000e+02	5.67359641e+11
2.54000000e+02	5.86675356e+11
2.55000000e+02	6.06567812e+11
2.56000000e+02	6.27050693e+11
2.57000000e+02	6.48137896e+11
2.58000000e+02	6.69843531e+11
2.59000000e+02	6.92181926e+11
2.60000000e+02	7.15167631e+11
2.61000000e+02	7.38815421e+11
2.62000000e+02	7.63140298e+11
2.63000000e+02	7.88157501e+11
2.64000000e+02	8.13882503e+11
2.65000000e+02	8.40331024e+11
2.66000000e+02	8.67519034e+11
2.67000000e+02	8.95462756e+11
2.68000000e+02	9.24178679e+11
2.69000000e+02	9.53683560e+11
2.70000000e+02	9.83994438e+11
2.71000000e+02	1.01512864e+12
2.72000000e+02	1.04710377e+12
2.73000000e+02	1.07993778e+12
2.74000000e+02	1.11364889e+12
2.75000000e+02	1.14825568e+12
2.76000000e+02	1.18377705e+12
2.77000000e+02	1.22023226e+12
2.78000000e+02	1.25764094e+12
2.79000000e+02	1.29602308e+12
2.80000000e+02	1.33539906e+12
2.81000000e+02	1.37578967e+12
2.82000000e+02	1.41721612e+12
2.83000000e+02	1.45970005e+12
2.84000000e+02	1.50326355e+12
2.85000000e+02	1.54792917e+12
2.86000000e+02	1.59371995e+12
2.87000000e+02	1.64065940e+12
2.88000000e+02	1.68877157e+12
2.89000000e+02	1.73808103e+12
2.90000000e+02	1.78861289e+12
2.91000000e+02	1.84039283e+12
2.92000000e+02	1.89344711e+12
2.93000000e+02	1.94780256e+12
2.94000000e+02	2.00348666e+12
2.95000000e+02	2.06052749e+12
2.96000000e+02	2.11895377e+12
2.97000000e+02	2.17879490e+12
2.98000000e+02	2.24008092e+12
2.99000000e+02	2.30284257e+12
3.00000000e+02	2.36711129e+12
3.01000000e+02	2.43291922e+12
3.02000000e+02	2.50029921e+12
3.03000000e+02	2.56928486e+12
3.04000000e+02	2.63991050e+12
3.05000000e+02	2.71221117e+12
3.06000000e+02	2.78622269e+12
3.07000000e+02	2.86198162e+12
3.08000000e+02	2.93952528e+12
3.09000000e+02	3.01889172e+12
3.10000000e+02	3.10011976e+12
3.11000000e+02	3.18324894e+12
3.12000000e+02	3.26831956e+12
3.13000000e+02	3.35537263e+12
3.14000000e+02	3.44444988e+12
3.15000000e+02	3.53559375e+12
3.16000000e+02	3.62884735e+12
3.17000000e+02	3.72425446e+12
3.18000000e+02	3.82185948e+12
3.19000000e+02	3.92170746e+12
3.20000000e+02	4.02384399e+12
3.21000000e+02	4.12831524e+12
3.22000000e+02	4.23516787e+12
3.23000000e+02	4.34444903e+12
3.24000000e+02	4.45620629e+12
3.25000000e+02	4.57048758e+12
3.26000000e+02	4.68734120e+12
3.27000000e+02	4.80681568e+12
3.28000000e+02	4.92895979e+12
3.29000000e+02	5.05382241e+12
3.30000000e+02	5.18145254e+12
3.31000000e+02	5.31189915e+12
3.32000000e+02	5.44521115e+12
3.33000000e+02	5.58143729e+12
3.34000000e+02	5.72062607e+12
3.35000000e+02	5.86282566e+12
3.36000000e+02	6.00808378e+12
3.37000000e+02	6.15644763e+12
3.38000000e+02	6.30796375e+12
3.39000000e+02	6.46267792e+12
3.40000000e+02	6.62063505e+12
3.41000000e+02	6.78187902e+12
3.42000000e+02	6.94645262e+12
3.43000000e+02	7.11439733e+12
3.44000000e+02	7.28575325e+12
3.45000000e+02	7.46055891e+12
3.46000000e+02	7.63885112e+12
3.47000000e+02	7.82066484e+12
3.48000000e+02	8.00603297e+12
3.49000000e+02	8.19498624e+12
3.50000000e+02	8.38755298e+12
3.51000000e+02	8.58375893e+12
3.52000000e+02	8.78362712e+12
3.53000000e+02	8.98717758e+12
3.54000000e+02	9.19442724e+12
3.55000000e+02	9.40538962e+12
3.56000000e+02	9.62007469e+12
3.57000000e+02	9.83848862e+12
3.58000000e+02	1.00606336e+13
3.59000000e+02	1.02865074e+13
3.60000000e+02	1.05161036e+13
3.61000000e+02	1.07494107e+13
3.62000000e+02	1.09864125e+13
3.63000000e+02	1.12270874e+13
3.64000000e+02	1.14714084e+13
3.65000000e+02	1.17193427e+13
3.66000000e+02	1.19708514e+13
3.67000000e+02	1.22258895e+13
3.68000000e+02	1.24844052e+13
3.69000000e+02	1.27463399e+13
3.70000000e+02	1.30116281e+13
3.71000000e+02	1.32801967e+13
3.72000000e+02	1.35519649e+13
3.73000000e+02	1.38268439e+13
3.74000000e+02	1.41047368e+13
3.75000000e+02	1.43855379e+13
3.76000000e+02	1.46691331e+13
3.77000000e+02	1.49553987e+13
3.78000000e+02	1.52442020e+13
3.79000000e+02	1.55354005e+13
3.80000000e+02	1.58288418e+13
3.81000000e+02	1.61243634e+13
3.82000000e+02	1.64217924e+13
3.83000000e+02	1.67209452e+13
3.84000000e+02	1.70216273e+13
3.85000000e+02	1.73236332e+13
3.86000000e+02	1.76267461e+13
3.87000000e+02	1.79307377e+13
3.88000000e+02	1.82353682e+13
3.89000000e+02	1.85403858e+13
3.90000000e+02	1.88455270e+13
3.91000000e+02	1.91505162e+13
3.92000000e+02	1.94550657e+13
3.93000000e+02	1.97588757e+13
3.94000000e+02	2.00616344e+13
3.95000000e+02	2.03630175e+13
3.96000000e+02	2.06626891e+13
3.97000000e+02	2.09603009e+13
3.98000000e+02	2.12554927e+13
3.99000000e+02	2.15478930e+13
4.00000000e+02	2.18371182e+13
4.01000000e+02	2.21227738e+13
4.02000000e+02	2.24044541e+13
4.03000000e+02	2.26817429e+13
4.04000000e+02	2.29542136e+13
4.05000000e+02	2.32214300e+13
4.06000000e+02	2.34829463e+13
4.07000000e+02	2.37383081e+13
4.08000000e+02	2.39870530e+13
4.09000000e+02	2.42287111e+13
4.10000000e+02	2.44628055e+13
4.11000000e+02	2.46888539e+13
4.12000000e+02	2.49063687e+13
4.13000000e+02	2.51148583e+13
4.14000000e+02	2.53138281e+13
4.15000000e+02	2.55027817e+13
4.16000000e+02	2.56812216e+13
4.17000000e+02	2.58486511e+13
4.18000000e+02	2.60045749e+13
4.19000000e+02	2.61485012e+13
4.20000000e+02	2.62799425e+13
4.21000000e+02	2.63984174e+13
4.22000000e+02	2.65034525e+13
4.23000000e+02	2.65945833e+13
4.24000000e+02	2.66713566e+13
4.25000000e+02	2.67333320e+13
4.26000000e+02	2.67800837e+13
4.27000000e+02	2.68112025e+13
4.28000000e+02	2.68262977e+13
4.29000000e+02	2.68249991e+13
4.30000000e+02	2.68069589e+13
4.31000000e+02	2.67718541e+13
4.32000000e+02	2.67193881e+13
4.33000000e+02	2.66492933e+13
4.34000000e+02	2.65613327e+13
4.35000000e+02	2.64553026e+13
4.36000000e+02	2.63310340e+13
4.37000000e+02	2.61883953e+13
4.38000000e+02	2.60272939e+13
4.39000000e+02	2.58476785e+13
4.40000000e+02	2.56495408e+13
4.41000000e+02	2.54329172e+13
4.42000000e+02	2.51978910e+13
4.43000000e+02	2.49445935e+13
4.44000000e+02	2.46732058e+13
4.45000000e+02	2.43839601e+13
4.46000000e+02	2.40771408e+13
4.47000000e+02	2.37530853e+13
4.48000000e+02	2.34121851e+13
4.49000000e+02	2.30548859e+13
4.50000000e+02	2.26816883e+13
4.51000000e+02	2.22931473e+13
4.52000000e+02	2.18898724e+13
4.53000000e+02	2.14725268e+13
4.54000000e+02	2.10418261e+13
4.55000000e+02	2.05985376e+13
4.56000000e+02	2.01434780e+13
4.57000000e+02	1.96775115e+13
4.58000000e+02	1.92015474e+13
4.59000000e+02	1.87165372e+13
4.60000000e+02	1.82234711e+13
4.61000000e+02	1.77233743e+13
4.62000000e+02	1.72173030e+13
4.63000000e+02	1.67063398e+13
4.64000000e+02	1.61915889e+13
4.65000000e+02	1.56741705e+13
4.66000000e+02	1.51552158e+13
4.67000000e+02	1.46358605e+13
4.68000000e+02	1.41172391e+13
4.69000000e+02	1.36004785e+13
4.70000000e+02	1.30866913e+13
4.71000000e+02	1.25769698e+13
4.72000000e+02	1.20723788e+13
4.73000000e+02	1.15739498e+13
4.74000000e+02	1.10826740e+13
4.75000000e+02	1.05994969e+13
4.76000000e+02	1.01253121e+13
4.77000000e+02	9.66095608e+12
4.78000000e+02	9.20720320e+12
4.79000000e+02	8.76476146e+12
4.80000000e+02	8.33426871e+12
4.81000000e+02	7.91628964e+12
4.82000000e+02	7.51131342e+12
4.83000000e+02	7.11975222e+12
4.84000000e+02	6.74194038e+12
4.85000000e+02	6.37813453e+12
4.86000000e+02	6.02851445e+12
4.87000000e+02	5.69318469e+12
4.88000000e+02	5.37217697e+12
4.89000000e+02	5.06545329e+12
4.90000000e+02	4.77290966e+12
4.91000000e+02	4.49438038e+12
4.92000000e+02	4.22964280e+12
4.93000000e+02	3.97842251e+12
4.94000000e+02	3.74039875e+12
4.95000000e+02	3.51521004e+12
4.96000000e+02	3.30245995e+12
4.97000000e+02	3.10172276e+12
4.98000000e+02	2.91254917e+12
4.99000000e+02	2.73447168e+12
5.00000000e+02	2.56700987e+12
5.01000000e+02	2.40967527e+12
5.02000000e+02	2.26197593e+12
5.03000000e+02	2.12342061e+12
5.04000000e+02	1.99352246e+12
5.05000000e+02	1.87180238e+12
5.06000000e+02	1.75779185e+12
5.07000000e+02	1.65103538e+12
5.08000000e+02	1.55109250e+12
5.09000000e+02	1.45753941e+12
5.10000000e+02	1.36997012e+12
5.11000000e+02	1.28799742e+12
5.12000000e+02	1.21125340e+12
5.13000000e+02	1.13938976e+12
5.14000000e+02	1.07207780e+12
5.15000000e+02	1.00900834e+12
5.16000000e+02	9.49891261e+11
5.17000000e+02	8.94455111e+11
5.18000000e+02	8.42446418e+11
5.19000000e+02	7.93629021e+11
5.20000000e+02	7.47783281e+11
5.21000000e+02	7.04705267e+11
5.22000000e+02	6.64205904e+11
5.23000000e+02	6.26110112e+11
5.24000000e+02	5.90255940e+11
5.25000000e+02	5.56493714e+11
5.26000000e+02	5.24685208e+11
5.27000000e+02	4.94702828e+11
5.28000000e+02	4.66428842e+11
5.29000000e+02	4.39754629e+11
5.30000000e+02	4.14579982e+11
5.31000000e+02	3.90812431e+11
5.32000000e+02	3.68366619e+11
5.33000000e+02	3.47163710e+11
5.34000000e+02	3.27130839e+11
5.35000000e+02	3.08200598e+11
5.36000000e+02	2.90310553e+11
5.37000000e+02	2.73402810e+11
5.38000000e+02	2.57423595e+11
5.39000000e+02	2.42322887e+11
5.40000000e+02	2.28054062e+11
5.41000000e+02	2.14573591e+11
5.42000000e+02	2.01840743e+11
5.43000000e+02	1.89817309e+11
5.44000000e+02	1.78467364e+11
5.45000000e+02	1.67757054e+11
5.46000000e+02	1.57654444e+11
5.47000000e+02	1.48129265e+11
5.48000000e+02	1.39152784e+11
5.49000000e+02	1.30697698e+11
5.50000000e+02	1.22738002e+11
5.51000000e+02	1.15248837e+11
5.52000000e+02	1.08206434e+11
5.53000000e+02	1.01588046e+11
5.54000000e+02	9.53718476e+10
5.55000000e+02	8.95368825e+10
5.56000000e+02	8.40630252e+10
5.57000000e+02	7.89309406e+10
5.58000000e+02	7.41220350e+10
5.59000000e+02	6.96184358e+10
5.60000000e+02	6.54029722e+10
5.61000000e+02	6.14591553e+10
5.62000000e+02	5.77711584e+10
5.63000000e+02	5.43238081e+10
5.64000000e+02	5.11025737e+10
5.65000000e+02	4.80935584e+10
5.66000000e+02	4.52834899e+10
5.67000000e+02	4.26597119e+10
5.68000000e+02	4.02101762e+10
5.69000000e+02	3.79234338e+10
5.70000000e+02	3.57886256e+10
5.71000000e+02	3.37954702e+10
5.72000000e+02	3.19342533e+10
5.73000000e+02	3.01958137e+10
5.74000000e+02	2.85715290e+10
5.75000000e+02	2.70533001e+10
5.76000000e+02	2.56335342e+10
5.77000000e+02	2.43051273e+10
5.78000000e+02	2.30614450e+10
5.79000000e+02	2.18963027e+10
5.80000000e+02	2.08039459e+10
5.81000000e+02	1.97790293e+10
5.82000000e+02	1.88165960e+10
5.83000000e+02	1.79120558e+10
5.84000000e+02	1.70611652e+10
5.85000000e+02	1.62600055e+10
5.86000000e+02	1.55049631e+10
5.87000000e+02	1.47927090e+10
5.88000000e+02	1.41201794e+10
5.89000000e+02	1.34845569e+10
5.90000000e+02	1.28832527e+10
5.91000000e+02	1.23138890e+10
5.92000000e+02	1.17742825e+10
5.93000000e+02	1.12624293e+10
5.94000000e+02	1.07764900e+10
5.95000000e+02	1.03147758e+10
5.96000000e+02	9.87573622e+09
5.97000000e+02	9.45794656e+09
5.98000000e+02	9.06009730e+09
5.99000000e+02	8.68098367e+09
6.00000000e+02	8.31949630e+09
6.01000000e+02	7.97461260e+09
6.02000000e+02	7.64538881e+09
6.03000000e+02	7.33095276e+09
6.04000000e+02	7.03049745e+09
6.05000000e+02	6.74327490e+09
6.06000000e+02	6.46859078e+09
6.07000000e+02	6.20579957e+09
6.08000000e+02	5.95430008e+09
6.09000000e+02	5.71353145e+09
6.10000000e+02	5.48296957e+09
6.11000000e+02	5.26212385e+09
6.12000000e+02	5.05053429e+09
6.13000000e+02	4.84776884e+09
6.14000000e+02	4.65342109e+09
6.15000000e+02	4.46710817e+09
6.16000000e+02	4.28846880e+09
6.17000000e+02	4.11716166e+09
6.18000000e+02	3.95286377e+09
6.19000000e+02	3.79526921e+09
6.20000000e+02	3.64408782e+09
6.21000000e+02	3.49904411e+09
6.22000000e+02	3.35987626e+09
6.23000000e+02	3.22633518e+09
6.24000000e+02	3.09818372e+09
6.25000000e+02	2.97519591e+09
6.26000000e+02	2.85715625e+09
6.27000000e+02	2.74385914e+09
6.28000000e+02	2.63510828e+09
6.29000000e+02	2.53071613e+09
6.30000000e+02	2.43050351e+09
6.31000000e+02	2.33429906e+09
6.32000000e+02	2.24193886e+09
6.33000000e+02	2.15326611e+09
6.34000000e+02	2.06813072e+09
6.35000000e+02	1.98638898e+09
6.36000000e+02	1.90790330e+09
6.37000000e+02	1.83254189e+09
6.38000000e+02	1.76017846e+09
6.39000000e+02	1.69069201e+09
6.40000000e+02	1.62396658e+09
6.41000000e+02	1.55989106e+09
6.42000000e+02	1.49835887e+09
6.43000000e+02	1.43926786e+09
6.44000000e+02	1.38252008e+09
6.45000000e+02	1.32802163e+09
6.46000000e+02	1.27568239e+09
6.47000000e+02	1.22541597e+09
6.48000000e+02	1.17713952e+09
6.49000000e+02	1.13077353e+09
6.50000000e+02	1.08624173e+09
6.51000000e+02	1.04347097e+09
6.52000000e+02	1.00239099e+09
6.53000000e+02	9.62934507e+08
6.54000000e+02	9.25036826e+08
6.55000000e+02	8.88635958e+08
6.56000000e+02	8.53672364e+08
6.57000000e+02	8.20088898e+08
6.58000000e+02	7.87830769e+08
6.59000000e+02	7.56845357e+08
