# Profil de FluxX au temps 5.000000000000045e-12 
# simu : /Volumes/MERCURE/JOBS/Zeq2_tanh_50mic_3p5e21_B0_20ps/GNU/FluxX@y-c.set
# col 0 : abscisse (um)
# col 1 : FluxX (W/cm2)
0.00000000e+00	0.00000000e+00
1.00000000e+00	7.00330967e+06
2.00000000e+00	8.70453727e+06
3.00000000e+00	2.10008503e+07
4.00000000e+00	2.66732404e+07
5.00000000e+00	3.18837686e+07
6.00000000e+00	3.69888352e+07
7.00000000e+00	4.21120809e+07
8.00000000e+00	4.72939748e+07
9.00000000e+00	5.25491129e+07
1.00000000e+01	5.78871564e+07
1.10000000e+01	6.33172093e+07
1.20000000e+01	6.88484657e+07
1.30000000e+01	7.44902326e+07
1.40000000e+01	8.02519555e+07
1.50000000e+01	8.61431403e+07
1.60000000e+01	9.21734565e+07
1.70000000e+01	9.83527407e+07
1.80000000e+01	1.04690963e+08
1.90000000e+01	1.11198370e+08
2.00000000e+01	1.17885366e+08
2.10000000e+01	1.24762638e+08
2.20000000e+01	1.31841153e+08
2.30000000e+01	1.39132164e+08
2.40000000e+01	1.46647244e+08
2.50000000e+01	1.54398321e+08
2.60000000e+01	1.62397683e+08
2.70000000e+01	1.70657980e+08
2.80000000e+01	1.79192320e+08
2.90000000e+01	1.88014225e+08
3.00000000e+01	1.97137669e+08
3.10000000e+01	2.06577122e+08
3.20000000e+01	2.16347567e+08
3.30000000e+01	2.26464476e+08
3.40000000e+01	2.36943925e+08
3.50000000e+01	2.47802564e+08
3.60000000e+01	2.59057628e+08
3.70000000e+01	2.70727020e+08
3.80000000e+01	2.82829269e+08
3.90000000e+01	2.95383616e+08
4.00000000e+01	3.08410067e+08
4.10000000e+01	3.21929312e+08
4.20000000e+01	3.35962866e+08
4.30000000e+01	3.50533073e+08
4.40000000e+01	3.65663130e+08
4.50000000e+01	3.81377120e+08
4.60000000e+01	3.97700055e+08
4.70000000e+01	4.14657952e+08
4.80000000e+01	4.32277781e+08
4.90000000e+01	4.50587597e+08
5.00000000e+01	4.69616583e+08
5.10000000e+01	4.89394983e+08
5.20000000e+01	5.09954345e+08
5.30000000e+01	5.31327339e+08
5.40000000e+01	5.53547990e+08
5.50000000e+01	5.76651694e+08
5.60000000e+01	6.00675177e+08
5.70000000e+01	6.25656688e+08
5.80000000e+01	6.51635929e+08
5.90000000e+01	6.78654206e+08
6.00000000e+01	7.06754501e+08
6.10000000e+01	7.35981482e+08
6.20000000e+01	7.66381558e+08
6.30000000e+01	7.98003043e+08
6.40000000e+01	8.30896147e+08
6.50000000e+01	8.65113111e+08
6.60000000e+01	9.00708228e+08
6.70000000e+01	9.37737975e+08
6.80000000e+01	9.76261105e+08
6.90000000e+01	1.01633868e+09
7.00000000e+01	1.05803421e+09
7.10000000e+01	1.10141380e+09
7.20000000e+01	1.14654610e+09
7.30000000e+01	1.19350258e+09
7.40000000e+01	1.24235753e+09
7.50000000e+01	1.29318821e+09
7.60000000e+01	1.34607499e+09
7.70000000e+01	1.40110140e+09
7.80000000e+01	1.45835442e+09
7.90000000e+01	1.51792433e+09
8.00000000e+01	1.57990512e+09
8.10000000e+01	1.64439453e+09
8.20000000e+01	1.71149415e+09
8.30000000e+01	1.78130964e+09
8.40000000e+01	1.85395087e+09
8.50000000e+01	1.92953205e+09
8.60000000e+01	2.00817196e+09
8.70000000e+01	2.08999406e+09
8.80000000e+01	2.17512675e+09
8.90000000e+01	2.26370351e+09
9.00000000e+01	2.35586308e+09
9.10000000e+01	2.45174969e+09
9.20000000e+01	2.55151333e+09
9.30000000e+01	2.65530983e+09
9.40000000e+01	2.76330116e+09
9.50000000e+01	2.87565576e+09
9.60000000e+01	2.99254862e+09
9.70000000e+01	3.11416159e+09
9.80000000e+01	3.24068372e+09
9.90000000e+01	3.37231141e+09
1.00000000e+02	3.50924875e+09
1.01000000e+02	3.65170780e+09
1.02000000e+02	3.79990886e+09
1.03000000e+02	3.95408085e+09
1.04000000e+02	4.11446153e+09
1.05000000e+02	4.28129789e+09
1.06000000e+02	4.45484649e+09
1.07000000e+02	4.63537380e+09
1.08000000e+02	4.82315652e+09
1.09000000e+02	5.01848199e+09
1.10000000e+02	5.22164857e+09
1.11000000e+02	5.43296606e+09
1.12000000e+02	5.65275606e+09
1.13000000e+02	5.88135240e+09
1.14000000e+02	6.11910160e+09
1.15000000e+02	6.36636328e+09
1.16000000e+02	6.62351064e+09
1.17000000e+02	6.89093091e+09
1.18000000e+02	7.16902588e+09
1.19000000e+02	7.45821231e+09
1.20000000e+02	7.75892256e+09
1.21000000e+02	8.07160499e+09
1.22000000e+02	8.39672456e+09
1.23000000e+02	8.73476337e+09
1.24000000e+02	9.08622127e+09
1.25000000e+02	9.45161633e+09
1.26000000e+02	9.83148555e+09
1.27000000e+02	1.02263853e+10
1.28000000e+02	1.06368923e+10
1.29000000e+02	1.10636037e+10
1.30000000e+02	1.15071381e+10
1.31000000e+02	1.19681363e+10
1.32000000e+02	1.24472615e+10
1.33000000e+02	1.29452006e+10
1.34000000e+02	1.34626643e+10
1.35000000e+02	1.40003883e+10
1.36000000e+02	1.45591337e+10
1.37000000e+02	1.51396877e+10
1.38000000e+02	1.57428646e+10
1.39000000e+02	1.63695066e+10
1.40000000e+02	1.70204839e+10
1.41000000e+02	1.76966963e+10
1.42000000e+02	1.83990736e+10
1.43000000e+02	1.91285762e+10
1.44000000e+02	1.98861963e+10
1.45000000e+02	2.06729582e+10
1.46000000e+02	2.14899198e+10
1.47000000e+02	2.23381725e+10
1.48000000e+02	2.32188429e+10
1.49000000e+02	2.41330929e+10
1.50000000e+02	2.50821212e+10
1.51000000e+02	2.60671633e+10
1.52000000e+02	2.70894930e+10
1.53000000e+02	2.81504229e+10
1.54000000e+02	2.92513054e+10
1.55000000e+02	3.03935331e+10
1.56000000e+02	3.15785402e+10
1.57000000e+02	3.28078028e+10
1.58000000e+02	3.40828398e+10
1.59000000e+02	3.54052140e+10
1.60000000e+02	3.67765326e+10
1.61000000e+02	3.81984477e+10
1.62000000e+02	3.96726579e+10
1.63000000e+02	4.12009081e+10
1.64000000e+02	4.27849907e+10
1.65000000e+02	4.44267467e+10
1.66000000e+02	4.61280655e+10
1.67000000e+02	4.78908864e+10
1.68000000e+02	4.97171989e+10
1.69000000e+02	5.16090435e+10
1.70000000e+02	5.35685125e+10
1.71000000e+02	5.55977502e+10
1.72000000e+02	5.76989540e+10
1.73000000e+02	5.98743748e+10
1.74000000e+02	6.21263176e+10
1.75000000e+02	6.44571421e+10
1.76000000e+02	6.68692633e+10
1.77000000e+02	6.93651521e+10
1.78000000e+02	7.19473356e+10
1.79000000e+02	7.46183979e+10
1.80000000e+02	7.73809804e+10
1.81000000e+02	8.02377824e+10
1.82000000e+02	8.31915617e+10
1.83000000e+02	8.62451347e+10
1.84000000e+02	8.94013769e+10
1.85000000e+02	9.26632237e+10
1.86000000e+02	9.60336705e+10
1.87000000e+02	9.95157731e+10
1.88000000e+02	1.03112648e+11
1.89000000e+02	1.06827474e+11
1.90000000e+02	1.10663489e+11
1.91000000e+02	1.14623995e+11
1.92000000e+02	1.18712356e+11
1.93000000e+02	1.22931998e+11
1.94000000e+02	1.27286410e+11
1.95000000e+02	1.31779144e+11
1.96000000e+02	1.36413817e+11
1.97000000e+02	1.41194107e+11
1.98000000e+02	1.46123758e+11
1.99000000e+02	1.51206580e+11
2.00000000e+02	1.56446444e+11
2.01000000e+02	1.61847291e+11
2.02000000e+02	1.67413122e+11
2.03000000e+02	1.73148009e+11
2.04000000e+02	1.79056087e+11
2.05000000e+02	1.85141560e+11
2.06000000e+02	1.91408697e+11
2.07000000e+02	1.97861837e+11
2.08000000e+02	2.04505386e+11
2.09000000e+02	2.11343821e+11
2.10000000e+02	2.18381685e+11
2.11000000e+02	2.25623596e+11
2.12000000e+02	2.33074241e+11
2.13000000e+02	2.40738379e+11
2.14000000e+02	2.48620845e+11
2.15000000e+02	2.56726545e+11
2.16000000e+02	2.65060464e+11
2.17000000e+02	2.73627665e+11
2.18000000e+02	2.82433286e+11
2.19000000e+02	2.91482550e+11
2.20000000e+02	3.00780762e+11
2.21000000e+02	3.10333309e+11
2.22000000e+02	3.20145668e+11
2.23000000e+02	3.30223405e+11
2.24000000e+02	3.40572178e+11
2.25000000e+02	3.51197739e+11
2.26000000e+02	3.62105940e+11
2.27000000e+02	3.73302733e+11
2.28000000e+02	3.84794177e+11
2.29000000e+02	3.96586437e+11
2.30000000e+02	4.08685795e+11
2.31000000e+02	4.21098647e+11
2.32000000e+02	4.33831512e+11
2.33000000e+02	4.46891038e+11
2.34000000e+02	4.60284002e+11
2.35000000e+02	4.74017320e+11
2.36000000e+02	4.88098051e+11
2.37000000e+02	5.02533405e+11
2.38000000e+02	5.17330744e+11
2.39000000e+02	5.32497597e+11
2.40000000e+02	5.48041658e+11
2.41000000e+02	5.63970800e+11
2.42000000e+02	5.80293079e+11
2.43000000e+02	5.97016743e+11
2.44000000e+02	6.14150240e+11
2.45000000e+02	6.31702225e+11
2.46000000e+02	6.49681571e+11
2.47000000e+02	6.68097377e+11
2.48000000e+02	6.86958974e+11
2.49000000e+02	7.06275941e+11
2.50000000e+02	7.26058108e+11
2.51000000e+02	7.46315569e+11
2.52000000e+02	7.67058693e+11
2.53000000e+02	7.88298131e+11
2.54000000e+02	8.10044829e+11
2.55000000e+02	8.32310039e+11
2.56000000e+02	8.55105328e+11
2.57000000e+02	8.78442588e+11
2.58000000e+02	9.02334050e+11
2.59000000e+02	9.26792293e+11
2.60000000e+02	9.51830256e+11
2.61000000e+02	9.77461249e+11
2.62000000e+02	1.00369896e+12
2.63000000e+02	1.03055748e+12
2.64000000e+02	1.05805130e+12
2.65000000e+02	1.08619532e+12
2.66000000e+02	1.11500487e+12
2.67000000e+02	1.14449573e+12
2.68000000e+02	1.17468410e+12
2.69000000e+02	1.20558668e+12
2.70000000e+02	1.23722060e+12
2.71000000e+02	1.26960350e+12
2.72000000e+02	1.30275350e+12
2.73000000e+02	1.33668921e+12
2.74000000e+02	1.37142977e+12
2.75000000e+02	1.40699483e+12
2.76000000e+02	1.44340456e+12
2.77000000e+02	1.48067969e+12
2.78000000e+02	1.51884148e+12
2.79000000e+02	1.55791175e+12
2.80000000e+02	1.59791287e+12
2.81000000e+02	1.63886780e+12
2.82000000e+02	1.68080006e+12
2.83000000e+02	1.72373377e+12
2.84000000e+02	1.76769360e+12
2.85000000e+02	1.81270487e+12
2.86000000e+02	1.85879344e+12
2.87000000e+02	1.90598581e+12
2.88000000e+02	1.95430908e+12
2.89000000e+02	2.00379094e+12
2.90000000e+02	2.05445972e+12
2.91000000e+02	2.10634433e+12
2.92000000e+02	2.15947432e+12
2.93000000e+02	2.21387984e+12
2.94000000e+02	2.26959166e+12
2.95000000e+02	2.32664115e+12
2.96000000e+02	2.38506030e+12
2.97000000e+02	2.44488170e+12
2.98000000e+02	2.50613855e+12
2.99000000e+02	2.56886463e+12
3.00000000e+02	2.63309434e+12
3.01000000e+02	2.69886263e+12
3.02000000e+02	2.76620506e+12
3.03000000e+02	2.83515773e+12
3.04000000e+02	2.90575732e+12
3.05000000e+02	2.97804104e+12
3.06000000e+02	3.05204664e+12
3.07000000e+02	3.12781240e+12
3.08000000e+02	3.20537709e+12
3.09000000e+02	3.28477998e+12
3.10000000e+02	3.36606080e+12
3.11000000e+02	3.44925975e+12
3.12000000e+02	3.53441745e+12
3.13000000e+02	3.62157492e+12
3.14000000e+02	3.71077358e+12
3.15000000e+02	3.80205519e+12
3.16000000e+02	3.89546185e+12
3.17000000e+02	3.99103598e+12
3.18000000e+02	4.08882023e+12
3.19000000e+02	4.18885750e+12
3.20000000e+02	4.29119089e+12
3.21000000e+02	4.39586366e+12
3.22000000e+02	4.50291919e+12
3.23000000e+02	4.61240091e+12
3.24000000e+02	4.72435231e+12
3.25000000e+02	4.83881683e+12
3.26000000e+02	4.95583786e+12
3.27000000e+02	5.07545864e+12
3.28000000e+02	5.19772223e+12
3.29000000e+02	5.32267145e+12
3.30000000e+02	5.45034880e+12
3.31000000e+02	5.58079640e+12
3.32000000e+02	5.71405591e+12
3.33000000e+02	5.85016847e+12
3.34000000e+02	5.98917463e+12
3.35000000e+02	6.13111422e+12
3.36000000e+02	6.27602631e+12
3.37000000e+02	6.42394911e+12
3.38000000e+02	6.57491985e+12
3.39000000e+02	6.72897473e+12
3.40000000e+02	6.88614874e+12
3.41000000e+02	7.04647565e+12
3.42000000e+02	7.20998780e+12
3.43000000e+02	7.37671605e+12
3.44000000e+02	7.54668963e+12
3.45000000e+02	7.71993601e+12
3.46000000e+02	7.89648081e+12
3.47000000e+02	8.07634758e+12
3.48000000e+02	8.25955774e+12
3.49000000e+02	8.44613040e+12
3.50000000e+02	8.63608220e+12
3.51000000e+02	8.82942717e+12
3.52000000e+02	9.02617656e+12
3.53000000e+02	9.22633868e+12
3.54000000e+02	9.42991871e+12
3.55000000e+02	9.63691857e+12
3.56000000e+02	9.84733667e+12
3.57000000e+02	1.00611678e+13
3.58000000e+02	1.02784028e+13
3.59000000e+02	1.04990287e+13
3.60000000e+02	1.07230281e+13
3.61000000e+02	1.09503791e+13
3.62000000e+02	1.11810553e+13
3.63000000e+02	1.14150253e+13
3.64000000e+02	1.16522529e+13
3.65000000e+02	1.18926964e+13
3.66000000e+02	1.21363084e+13
3.67000000e+02	1.23830363e+13
3.68000000e+02	1.26328210e+13
3.69000000e+02	1.28855975e+13
3.70000000e+02	1.31412945e+13
3.71000000e+02	1.33998338e+13
3.72000000e+02	1.36611305e+13
3.73000000e+02	1.39250927e+13
3.74000000e+02	1.41916211e+13
3.75000000e+02	1.44606088e+13
3.76000000e+02	1.47319413e+13
3.77000000e+02	1.50054961e+13
3.78000000e+02	1.52811425e+13
3.79000000e+02	1.55587415e+13
3.80000000e+02	1.58381455e+13
3.81000000e+02	1.61191981e+13
3.82000000e+02	1.64017339e+13
3.83000000e+02	1.66855786e+13
3.84000000e+02	1.69705484e+13
3.85000000e+02	1.72564502e+13
3.86000000e+02	1.75430811e+13
3.87000000e+02	1.78302288e+13
3.88000000e+02	1.81176709e+13
3.89000000e+02	1.84051751e+13
3.90000000e+02	1.86924994e+13
3.91000000e+02	1.89793914e+13
3.92000000e+02	1.92655886e+13
3.93000000e+02	1.95508187e+13
3.94000000e+02	1.98347990e+13
3.95000000e+02	2.01172368e+13
3.96000000e+02	2.03978293e+13
3.97000000e+02	2.06762638e+13
3.98000000e+02	2.09522179e+13
3.99000000e+02	2.12253592e+13
4.00000000e+02	2.14953461e+13
4.01000000e+02	2.17618275e+13
4.02000000e+02	2.20244433e+13
4.03000000e+02	2.22828246e+13
4.04000000e+02	2.25365942e+13
4.05000000e+02	2.27853665e+13
4.06000000e+02	2.30287485e+13
4.07000000e+02	2.32663399e+13
4.08000000e+02	2.34977336e+13
4.09000000e+02	2.37225164e+13
4.10000000e+02	2.39402694e+13
4.11000000e+02	2.41505688e+13
4.12000000e+02	2.43529866e+13
4.13000000e+02	2.45470911e+13
4.14000000e+02	2.47324480e+13
4.15000000e+02	2.49086210e+13
4.16000000e+02	2.50751730e+13
4.17000000e+02	2.52316668e+13
4.18000000e+02	2.53776660e+13
4.19000000e+02	2.55127366e+13
4.20000000e+02	2.56364475e+13
4.21000000e+02	2.57483723e+13
4.22000000e+02	2.58480898e+13
4.23000000e+02	2.59351860e+13
4.24000000e+02	2.60092550e+13
4.25000000e+02	2.60699008e+13
4.26000000e+02	2.61167382e+13
4.27000000e+02	2.61493948e+13
4.28000000e+02	2.61675122e+13
4.29000000e+02	2.61707481e+13
4.30000000e+02	2.61587771e+13
4.31000000e+02	2.61312931e+13
4.32000000e+02	2.60880110e+13
4.33000000e+02	2.60286678e+13
4.34000000e+02	2.59530249e+13
4.35000000e+02	2.58608699e+13
4.36000000e+02	2.57520180e+13
4.37000000e+02	2.56263141e+13
4.38000000e+02	2.54836347e+13
4.39000000e+02	2.53238891e+13
4.40000000e+02	2.51470218e+13
4.41000000e+02	2.49530139e+13
4.42000000e+02	2.47418848e+13
4.43000000e+02	2.45136937e+13
4.44000000e+02	2.42685416e+13
4.45000000e+02	2.40065721e+13
4.46000000e+02	2.37279733e+13
4.47000000e+02	2.34329786e+13
4.48000000e+02	2.31218684e+13
4.49000000e+02	2.27949703e+13
4.50000000e+02	2.24526605e+13
4.51000000e+02	2.20953643e+13
4.52000000e+02	2.17235559e+13
4.53000000e+02	2.13377593e+13
4.54000000e+02	2.09385481e+13
4.55000000e+02	2.05265444e+13
4.56000000e+02	2.01024191e+13
4.57000000e+02	1.96668903e+13
4.58000000e+02	1.92207221e+13
4.59000000e+02	1.87647231e+13
4.60000000e+02	1.82997443e+13
4.61000000e+02	1.78266765e+13
4.62000000e+02	1.73464479e+13
4.63000000e+02	1.68600204e+13
4.64000000e+02	1.63683865e+13
4.65000000e+02	1.58725649e+13
4.66000000e+02	1.53735964e+13
4.67000000e+02	1.48725390e+13
4.68000000e+02	1.43704627e+13
4.69000000e+02	1.38684443e+13
4.70000000e+02	1.33675614e+13
4.71000000e+02	1.28688867e+13
4.72000000e+02	1.23734813e+13
4.73000000e+02	1.18823888e+13
4.74000000e+02	1.13966289e+13
4.75000000e+02	1.09171905e+13
4.76000000e+02	1.04450259e+13
4.77000000e+02	9.98104427e+12
4.78000000e+02	9.52610577e+12
4.79000000e+02	9.08101606e+12
4.80000000e+02	8.64652099e+12
4.81000000e+02	8.22330205e+12
4.82000000e+02	7.81197221e+12
4.83000000e+02	7.41307264e+12
4.84000000e+02	7.02706998e+12
4.85000000e+02	6.65435454e+12
4.86000000e+02	6.29523925e+12
4.87000000e+02	5.94995951e+12
4.88000000e+02	5.61867387e+12
4.89000000e+02	5.30146557e+12
4.90000000e+02	4.99834487e+12
4.91000000e+02	4.70925221e+12
4.92000000e+02	4.43406197e+12
4.93000000e+02	4.17258697e+12
4.94000000e+02	3.92458334e+12
4.95000000e+02	3.68975599e+12
4.96000000e+02	3.46776425e+12
4.97000000e+02	3.25822780e+12
4.98000000e+02	3.06073265e+12
4.99000000e+02	2.87483715e+12
5.00000000e+02	2.70007779e+12
5.01000000e+02	2.53597494e+12
5.02000000e+02	2.38203816e+12
5.03000000e+02	2.23777125e+12
5.04000000e+02	2.10267687e+12
5.05000000e+02	1.97626069e+12
5.06000000e+02	1.85803509e+12
5.07000000e+02	1.74752242e+12
5.08000000e+02	1.64425770e+12
5.09000000e+02	1.54779089e+12
5.10000000e+02	1.45768873e+12
5.11000000e+02	1.37353614e+12
5.12000000e+02	1.29493719e+12
5.13000000e+02	1.22151581e+12
5.14000000e+02	1.15291608e+12
5.15000000e+02	1.08880232e+12
5.16000000e+02	1.02885892e+12
5.17000000e+02	9.72789969e+11
5.18000000e+02	9.20318735e+11
5.19000000e+02	8.71186997e+11
5.20000000e+02	8.25154303e+11
5.21000000e+02	7.81997146e+11
5.22000000e+02	7.41508092e+11
5.23000000e+02	7.03494889e+11
5.24000000e+02	6.67779557e+11
5.25000000e+02	6.34197491e+11
5.26000000e+02	6.02596576e+11
5.27000000e+02	5.72836331e+11
5.28000000e+02	5.44787079e+11
5.29000000e+02	5.18329159e+11
5.30000000e+02	4.93352180e+11
5.31000000e+02	4.69754312e+11
5.32000000e+02	4.47441622e+11
5.33000000e+02	4.26327461e+11
5.34000000e+02	4.06331879e+11
5.35000000e+02	3.87381097e+11
5.36000000e+02	3.69407007e+11
5.37000000e+02	3.52346720e+11
5.38000000e+02	3.36142138e+11
5.39000000e+02	3.20739576e+11
5.40000000e+02	3.06089397e+11
5.41000000e+02	2.92145691e+11
5.42000000e+02	2.78865973e+11
5.43000000e+02	2.66210912e+11
5.44000000e+02	2.54144075e+11
5.45000000e+02	2.42631699e+11
5.46000000e+02	2.31642485e+11
5.47000000e+02	2.21147390e+11
5.48000000e+02	2.11119471e+11
5.49000000e+02	2.01533694e+11
5.50000000e+02	1.92366832e+11
5.51000000e+02	1.83597234e+11
5.52000000e+02	1.75204814e+11
5.53000000e+02	1.67170880e+11
5.54000000e+02	1.59478014e+11
5.55000000e+02	1.52109972e+11
5.56000000e+02	1.45051636e+11
5.57000000e+02	1.38288868e+11
5.58000000e+02	1.31808485e+11
5.59000000e+02	1.25598150e+11
5.60000000e+02	1.19646314e+11
5.61000000e+02	1.13942171e+11
5.62000000e+02	1.08475562e+11
5.63000000e+02	1.03236961e+11
5.64000000e+02	9.82173936e+10
5.65000000e+02	9.34083997e+10
5.66000000e+02	8.88020003e+10
5.67000000e+02	8.43906319e+10
5.68000000e+02	8.01671374e+10
5.69000000e+02	7.61247054e+10
5.70000000e+02	7.22568533e+10
5.71000000e+02	6.85573946e+10
5.72000000e+02	6.50204016e+10
5.73000000e+02	6.16401975e+10
5.74000000e+02	5.84113153e+10
5.75000000e+02	5.53284894e+10
5.76000000e+02	5.23866331e+10
5.77000000e+02	4.95808172e+10
5.78000000e+02	4.69062645e+10
5.79000000e+02	4.43583272e+10
5.80000000e+02	4.19324810e+10
5.81000000e+02	3.96243152e+10
5.82000000e+02	3.74295202e+10
5.83000000e+02	3.53438855e+10
5.84000000e+02	3.33632925e+10
5.85000000e+02	3.14837074e+10
5.86000000e+02	2.97011828e+10
5.87000000e+02	2.80118513e+10
5.88000000e+02	2.64119252e+10
5.89000000e+02	2.48976973e+10
5.90000000e+02	2.34655385e+10
5.91000000e+02	2.21118997e+10
5.92000000e+02	2.08333129e+10
5.93000000e+02	1.96263913e+10
5.94000000e+02	1.84878313e+10
5.95000000e+02	1.74144148e+10
5.96000000e+02	1.64030100e+10
5.97000000e+02	1.54505732e+10
5.98000000e+02	1.45541514e+10
5.99000000e+02	1.37108825e+10
6.00000000e+02	1.29179976e+10
6.01000000e+02	1.21728219e+10
6.02000000e+02	1.14727756e+10
6.03000000e+02	1.08153744e+10
6.04000000e+02	1.01982302e+10
6.05000000e+02	9.61905086e+09
6.06000000e+02	9.07564016e+09
6.07000000e+02	8.56589711e+09
6.08000000e+02	8.08781529e+09
6.09000000e+02	7.63948154e+09
6.10000000e+02	7.21907463e+09
6.11000000e+02	6.82486368e+09
6.12000000e+02	6.45520618e+09
6.13000000e+02	6.10854586e+09
6.14000000e+02	5.78341045e+09
6.15000000e+02	5.47840922e+09
6.16000000e+02	5.19223034e+09
6.17000000e+02	4.92363809e+09
6.18000000e+02	4.67147012e+09
6.19000000e+02	4.43463450e+09
6.20000000e+02	4.21210681e+09
6.21000000e+02	4.00292706e+09
6.22000000e+02	3.80619681e+09
6.23000000e+02	3.62107610e+09
6.24000000e+02	3.44678059e+09
6.25000000e+02	3.28257851e+09
6.26000000e+02	3.12778790e+09
6.27000000e+02	2.98177373e+09
6.28000000e+02	2.84394525e+09
6.29000000e+02	2.71375328e+09
6.30000000e+02	2.59068764e+09
6.31000000e+02	2.47427479e+09
6.32000000e+02	2.36407532e+09
6.33000000e+02	2.25968186e+09
6.34000000e+02	2.16071673e+09
6.35000000e+02	2.06683012e+09
6.36000000e+02	1.97769787e+09
6.37000000e+02	1.89301987e+09
6.38000000e+02	1.81251820e+09
6.39000000e+02	1.73593551e+09
6.40000000e+02	1.66303352e+09
6.41000000e+02	1.59359150e+09
6.42000000e+02	1.52740495e+09
6.43000000e+02	1.46428442e+09
6.44000000e+02	1.40405421e+09
6.45000000e+02	1.34655136e+09
6.46000000e+02	1.29162461e+09
6.47000000e+02	1.23913344e+09
6.48000000e+02	1.18894727e+09
6.49000000e+02	1.14094452e+09
6.50000000e+02	1.09501200e+09
6.51000000e+02	1.05104418e+09
6.52000000e+02	1.00894252e+09
6.53000000e+02	9.68614997e+08
6.54000000e+02	9.29975457e+08
6.55000000e+02	8.92943228e+08
6.56000000e+02	8.57442593e+08
6.57000000e+02	8.23402502e+08
6.58000000e+02	7.90756078e+08
6.59000000e+02	7.59440326e+08
