# Profil de Te au temps 1.800999999999969e-11 
# simu : /Volumes/MERCURE/JOBS/Zeq2_tanh_50mic_3p5e21_B0_20ps/GNU/Te@y-c.set
# col 0 : abscisse (um)
# col 1 : Te (keV)
5.00000000e-01	9.99940836e-01
1.50000000e+00	9.99940811e-01
2.50000000e+00	9.99940783e-01
3.50000000e+00	9.99940723e-01
4.50000000e+00	9.99940644e-01
5.50000000e+00	9.99940548e-01
6.50000000e+00	9.99940434e-01
7.50000000e+00	9.99940302e-01
8.50000000e+00	9.99940151e-01
9.50000000e+00	9.99939983e-01
1.05000000e+01	9.99939795e-01
1.15000000e+01	9.99939589e-01
1.25000000e+01	9.99939365e-01
1.35000000e+01	9.99939121e-01
1.45000000e+01	9.99938858e-01
1.55000000e+01	9.99938576e-01
1.65000000e+01	9.99938275e-01
1.75000000e+01	9.99937955e-01
1.85000000e+01	9.99937615e-01
1.95000000e+01	9.99937255e-01
2.05000000e+01	9.99936876e-01
2.15000000e+01	9.99936476e-01
2.25000000e+01	9.99936057e-01
2.35000000e+01	9.99935617e-01
2.45000000e+01	9.99935156e-01
2.55000000e+01	9.99934675e-01
2.65000000e+01	9.99934172e-01
2.75000000e+01	9.99933649e-01
2.85000000e+01	9.99933104e-01
2.95000000e+01	9.99932538e-01
3.05000000e+01	9.99931950e-01
3.15000000e+01	9.99931339e-01
3.25000000e+01	9.99930707e-01
3.35000000e+01	9.99930052e-01
3.45000000e+01	9.99929373e-01
3.55000000e+01	9.99928672e-01
3.65000000e+01	9.99927947e-01
3.75000000e+01	9.99927198e-01
3.85000000e+01	9.99926426e-01
3.95000000e+01	9.99925628e-01
4.05000000e+01	9.99924806e-01
4.15000000e+01	9.99923959e-01
4.25000000e+01	9.99923086e-01
4.35000000e+01	9.99922188e-01
4.45000000e+01	9.99921263e-01
4.55000000e+01	9.99920311e-01
4.65000000e+01	9.99919332e-01
4.75000000e+01	9.99918326e-01
4.85000000e+01	9.99917292e-01
4.95000000e+01	9.99916230e-01
5.05000000e+01	9.99915138e-01
5.15000000e+01	9.99914017e-01
5.25000000e+01	9.99912867e-01
5.35000000e+01	9.99911686e-01
5.45000000e+01	9.99910474e-01
5.55000000e+01	9.99909231e-01
5.65000000e+01	9.99907955e-01
5.75000000e+01	9.99906648e-01
5.85000000e+01	9.99905307e-01
5.95000000e+01	9.99903932e-01
6.05000000e+01	9.99902524e-01
6.15000000e+01	9.99901080e-01
6.25000000e+01	9.99899601e-01
6.35000000e+01	9.99898085e-01
6.45000000e+01	9.99896533e-01
6.55000000e+01	9.99894942e-01
6.65000000e+01	9.99893314e-01
6.75000000e+01	9.99891647e-01
6.85000000e+01	9.99889939e-01
6.95000000e+01	9.99888191e-01
7.05000000e+01	9.99886402e-01
7.15000000e+01	9.99884571e-01
7.25000000e+01	9.99882696e-01
7.35000000e+01	9.99880777e-01
7.45000000e+01	9.99878814e-01
7.55000000e+01	9.99876805e-01
7.65000000e+01	9.99874750e-01
7.75000000e+01	9.99872647e-01
7.85000000e+01	9.99870495e-01
7.95000000e+01	9.99868294e-01
8.05000000e+01	9.99866042e-01
8.15000000e+01	9.99863738e-01
8.25000000e+01	9.99861382e-01
8.35000000e+01	9.99858972e-01
8.45000000e+01	9.99856507e-01
8.55000000e+01	9.99853986e-01
8.65000000e+01	9.99851408e-01
8.75000000e+01	9.99848771e-01
8.85000000e+01	9.99846074e-01
8.95000000e+01	9.99843316e-01
9.05000000e+01	9.99840496e-01
9.15000000e+01	9.99837612e-01
9.25000000e+01	9.99834663e-01
9.35000000e+01	9.99831648e-01
9.45000000e+01	9.99828564e-01
9.55000000e+01	9.99825411e-01
9.65000000e+01	9.99822187e-01
9.75000000e+01	9.99818891e-01
9.85000000e+01	9.99815520e-01
9.95000000e+01	9.99812073e-01
1.00500000e+02	9.99808549e-01
1.01500000e+02	9.99804945e-01
1.02500000e+02	9.99801261e-01
1.03500000e+02	9.99797493e-01
1.04500000e+02	9.99793641e-01
1.05500000e+02	9.99789703e-01
1.06500000e+02	9.99785675e-01
1.07500000e+02	9.99781557e-01
1.08500000e+02	9.99777347e-01
1.09500000e+02	9.99773041e-01
1.10500000e+02	9.99768639e-01
1.11500000e+02	9.99764137e-01
1.12500000e+02	9.99759534e-01
1.13500000e+02	9.99754827e-01
1.14500000e+02	9.99750014e-01
1.15500000e+02	9.99745093e-01
1.16500000e+02	9.99740060e-01
1.17500000e+02	9.99734913e-01
1.18500000e+02	9.99729650e-01
1.19500000e+02	9.99724268e-01
1.20500000e+02	9.99718765e-01
1.21500000e+02	9.99713136e-01
1.22500000e+02	9.99707380e-01
1.23500000e+02	9.99701493e-01
1.24500000e+02	9.99695473e-01
1.25500000e+02	9.99689316e-01
1.26500000e+02	9.99683019e-01
1.27500000e+02	9.99676578e-01
1.28500000e+02	9.99669991e-01
1.29500000e+02	9.99663253e-01
1.30500000e+02	9.99656362e-01
1.31500000e+02	9.99649313e-01
1.32500000e+02	9.99642103e-01
1.33500000e+02	9.99634728e-01
1.34500000e+02	9.99627185e-01
1.35500000e+02	9.99619468e-01
1.36500000e+02	9.99611574e-01
1.37500000e+02	9.99603499e-01
1.38500000e+02	9.99595238e-01
1.39500000e+02	9.99586786e-01
1.40500000e+02	9.99578141e-01
1.41500000e+02	9.99569295e-01
1.42500000e+02	9.99560246e-01
1.43500000e+02	9.99550987e-01
1.44500000e+02	9.99541514e-01
1.45500000e+02	9.99531822e-01
1.46500000e+02	9.99521905e-01
1.47500000e+02	9.99511757e-01
1.48500000e+02	9.99501374e-01
1.49500000e+02	9.99490750e-01
1.50500000e+02	9.99479878e-01
1.51500000e+02	9.99468753e-01
1.52500000e+02	9.99457368e-01
1.53500000e+02	9.99445718e-01
1.54500000e+02	9.99433794e-01
1.55500000e+02	9.99421592e-01
1.56500000e+02	9.99409105e-01
1.57500000e+02	9.99396324e-01
1.58500000e+02	9.99383243e-01
1.59500000e+02	9.99369855e-01
1.60500000e+02	9.99356151e-01
1.61500000e+02	9.99342126e-01
1.62500000e+02	9.99327769e-01
1.63500000e+02	9.99313074e-01
1.64500000e+02	9.99298031e-01
1.65500000e+02	9.99282633e-01
1.66500000e+02	9.99266871e-01
1.67500000e+02	9.99250735e-01
1.68500000e+02	9.99234216e-01
1.69500000e+02	9.99217305e-01
1.70500000e+02	9.99199992e-01
1.71500000e+02	9.99182268e-01
1.72500000e+02	9.99164122e-01
1.73500000e+02	9.99145543e-01
1.74500000e+02	9.99126521e-01
1.75500000e+02	9.99107045e-01
1.76500000e+02	9.99087103e-01
1.77500000e+02	9.99066685e-01
1.78500000e+02	9.99045777e-01
1.79500000e+02	9.99024369e-01
1.80500000e+02	9.99002447e-01
1.81500000e+02	9.98979999e-01
1.82500000e+02	9.98957012e-01
1.83500000e+02	9.98933472e-01
1.84500000e+02	9.98909365e-01
1.85500000e+02	9.98884678e-01
1.86500000e+02	9.98859396e-01
1.87500000e+02	9.98833504e-01
1.88500000e+02	9.98806987e-01
1.89500000e+02	9.98779829e-01
1.90500000e+02	9.98752014e-01
1.91500000e+02	9.98723526e-01
1.92500000e+02	9.98694348e-01
1.93500000e+02	9.98664463e-01
1.94500000e+02	9.98633854e-01
1.95500000e+02	9.98602501e-01
1.96500000e+02	9.98570387e-01
1.97500000e+02	9.98537493e-01
1.98500000e+02	9.98503799e-01
1.99500000e+02	9.98469284e-01
2.00500000e+02	9.98433930e-01
2.01500000e+02	9.98397714e-01
2.02500000e+02	9.98360615e-01
2.03500000e+02	9.98322611e-01
2.04500000e+02	9.98283680e-01
2.05500000e+02	9.98243797e-01
2.06500000e+02	9.98202941e-01
2.07500000e+02	9.98161086e-01
2.08500000e+02	9.98118207e-01
2.09500000e+02	9.98074278e-01
2.10500000e+02	9.98029275e-01
2.11500000e+02	9.97983169e-01
2.12500000e+02	9.97935933e-01
2.13500000e+02	9.97887540e-01
2.14500000e+02	9.97837960e-01
2.15500000e+02	9.97787164e-01
2.16500000e+02	9.97735121e-01
2.17500000e+02	9.97681800e-01
2.18500000e+02	9.97627170e-01
2.19500000e+02	9.97571199e-01
2.20500000e+02	9.97513852e-01
2.21500000e+02	9.97455095e-01
2.22500000e+02	9.97394894e-01
2.23500000e+02	9.97333213e-01
2.24500000e+02	9.97270015e-01
2.25500000e+02	9.97205262e-01
2.26500000e+02	9.97138916e-01
2.27500000e+02	9.97070938e-01
2.28500000e+02	9.97001287e-01
2.29500000e+02	9.96929922e-01
2.30500000e+02	9.96856800e-01
2.31500000e+02	9.96781878e-01
2.32500000e+02	9.96705112e-01
2.33500000e+02	9.96626456e-01
2.34500000e+02	9.96545864e-01
2.35500000e+02	9.96463288e-01
2.36500000e+02	9.96378680e-01
2.37500000e+02	9.96291989e-01
2.38500000e+02	9.96203165e-01
2.39500000e+02	9.96112155e-01
2.40500000e+02	9.96018906e-01
2.41500000e+02	9.95923362e-01
2.42500000e+02	9.95825469e-01
2.43500000e+02	9.95725169e-01
2.44500000e+02	9.95622402e-01
2.45500000e+02	9.95517110e-01
2.46500000e+02	9.95409230e-01
2.47500000e+02	9.95298701e-01
2.48500000e+02	9.95185457e-01
2.49500000e+02	9.95069433e-01
2.50500000e+02	9.94950563e-01
2.51500000e+02	9.94828776e-01
2.52500000e+02	9.94704003e-01
2.53500000e+02	9.94576173e-01
2.54500000e+02	9.94445211e-01
2.55500000e+02	9.94311043e-01
2.56500000e+02	9.94173591e-01
2.57500000e+02	9.94032778e-01
2.58500000e+02	9.93888523e-01
2.59500000e+02	9.93740744e-01
2.60500000e+02	9.93589357e-01
2.61500000e+02	9.93434276e-01
2.62500000e+02	9.93275415e-01
2.63500000e+02	9.93112683e-01
2.64500000e+02	9.92945990e-01
2.65500000e+02	9.92775241e-01
2.66500000e+02	9.92600342e-01
2.67500000e+02	9.92421194e-01
2.68500000e+02	9.92237700e-01
2.69500000e+02	9.92049756e-01
2.70500000e+02	9.91857259e-01
2.71500000e+02	9.91660104e-01
2.72500000e+02	9.91458182e-01
2.73500000e+02	9.91251382e-01
2.74500000e+02	9.91039592e-01
2.75500000e+02	9.90822696e-01
2.76500000e+02	9.90600578e-01
2.77500000e+02	9.90373117e-01
2.78500000e+02	9.90140191e-01
2.79500000e+02	9.89901675e-01
2.80500000e+02	9.89657442e-01
2.81500000e+02	9.89407362e-01
2.82500000e+02	9.89151302e-01
2.83500000e+02	9.88889128e-01
2.84500000e+02	9.88620700e-01
2.85500000e+02	9.88345880e-01
2.86500000e+02	9.88064522e-01
2.87500000e+02	9.87776482e-01
2.88500000e+02	9.87481610e-01
2.89500000e+02	9.87179755e-01
2.90500000e+02	9.86870761e-01
2.91500000e+02	9.86554471e-01
2.92500000e+02	9.86230724e-01
2.93500000e+02	9.85899357e-01
2.94500000e+02	9.85560203e-01
2.95500000e+02	9.85213091e-01
2.96500000e+02	9.84857849e-01
2.97500000e+02	9.84494300e-01
2.98500000e+02	9.84122265e-01
2.99500000e+02	9.83741561e-01
3.00500000e+02	9.83352003e-01
3.01500000e+02	9.82953400e-01
3.02500000e+02	9.82545561e-01
3.03500000e+02	9.82128288e-01
3.04500000e+02	9.81701383e-01
3.05500000e+02	9.81264642e-01
3.06500000e+02	9.80817859e-01
3.07500000e+02	9.80360824e-01
3.08500000e+02	9.79893322e-01
3.09500000e+02	9.79415137e-01
3.10500000e+02	9.78926048e-01
3.11500000e+02	9.78425830e-01
3.12500000e+02	9.77914255e-01
3.13500000e+02	9.77391091e-01
3.14500000e+02	9.76856101e-01
3.15500000e+02	9.76309047e-01
3.16500000e+02	9.75749684e-01
3.17500000e+02	9.75177766e-01
3.18500000e+02	9.74593041e-01
3.19500000e+02	9.73995254e-01
3.20500000e+02	9.73384146e-01
3.21500000e+02	9.72759454e-01
3.22500000e+02	9.72120910e-01
3.23500000e+02	9.71468245e-01
3.24500000e+02	9.70801183e-01
3.25500000e+02	9.70119444e-01
3.26500000e+02	9.69422746e-01
3.27500000e+02	9.68710801e-01
3.28500000e+02	9.67983318e-01
3.29500000e+02	9.67240001e-01
3.30500000e+02	9.66480551e-01
3.31500000e+02	9.65704664e-01
3.32500000e+02	9.64912032e-01
3.33500000e+02	9.64102342e-01
3.34500000e+02	9.63275279e-01
3.35500000e+02	9.62430522e-01
3.36500000e+02	9.61567745e-01
3.37500000e+02	9.60686621e-01
3.38500000e+02	9.59786815e-01
3.39500000e+02	9.58867991e-01
3.40500000e+02	9.57929806e-01
3.41500000e+02	9.56971915e-01
3.42500000e+02	9.55993967e-01
3.43500000e+02	9.54995609e-01
3.44500000e+02	9.53976480e-01
3.45500000e+02	9.52936220e-01
3.46500000e+02	9.51874459e-01
3.47500000e+02	9.50790828e-01
3.48500000e+02	9.49684950e-01
3.49500000e+02	9.48556446e-01
3.50500000e+02	9.47404932e-01
3.51500000e+02	9.46230019e-01
3.52500000e+02	9.45031315e-01
3.53500000e+02	9.43808425e-01
3.54500000e+02	9.42560946e-01
3.55500000e+02	9.41288475e-01
3.56500000e+02	9.39990603e-01
3.57500000e+02	9.38666916e-01
3.58500000e+02	9.37316999e-01
3.59500000e+02	9.35940429e-01
3.60500000e+02	9.34536781e-01
3.61500000e+02	9.33105627e-01
3.62500000e+02	9.31646535e-01
3.63500000e+02	9.30159065e-01
3.64500000e+02	9.28642779e-01
3.65500000e+02	9.27097232e-01
3.66500000e+02	9.25521974e-01
3.67500000e+02	9.23916554e-01
3.68500000e+02	9.22280516e-01
3.69500000e+02	9.20613400e-01
3.70500000e+02	9.18914742e-01
3.71500000e+02	9.17184076e-01
3.72500000e+02	9.15420931e-01
3.73500000e+02	9.13624834e-01
3.74500000e+02	9.11795305e-01
3.75500000e+02	9.09931865e-01
3.76500000e+02	9.08034028e-01
3.77500000e+02	9.06101308e-01
3.78500000e+02	9.04133213e-01
3.79500000e+02	9.02129249e-01
3.80500000e+02	9.00088919e-01
3.81500000e+02	8.98011721e-01
3.82500000e+02	8.95897154e-01
3.83500000e+02	8.93744709e-01
3.84500000e+02	8.91553879e-01
3.85500000e+02	8.89324150e-01
3.86500000e+02	8.87055008e-01
3.87500000e+02	8.84745936e-01
3.88500000e+02	8.82396413e-01
3.89500000e+02	8.80005917e-01
3.90500000e+02	8.77573923e-01
3.91500000e+02	8.75099903e-01
3.92500000e+02	8.72583328e-01
3.93500000e+02	8.70023666e-01
3.94500000e+02	8.67420384e-01
3.95500000e+02	8.64772946e-01
3.96500000e+02	8.62080814e-01
3.97500000e+02	8.59343450e-01
3.98500000e+02	8.56560313e-01
3.99500000e+02	8.53730861e-01
4.00500000e+02	8.50854550e-01
4.01500000e+02	8.47930836e-01
4.02500000e+02	8.44959173e-01
4.03500000e+02	8.41939016e-01
4.04500000e+02	8.38869815e-01
4.05500000e+02	8.35751025e-01
4.06500000e+02	8.32582097e-01
4.07500000e+02	8.29362483e-01
4.08500000e+02	8.26091635e-01
4.09500000e+02	8.22769004e-01
4.10500000e+02	8.19394044e-01
4.11500000e+02	8.15966208e-01
4.12500000e+02	8.12484949e-01
4.13500000e+02	8.08949724e-01
4.14500000e+02	8.05359989e-01
4.15500000e+02	8.01715203e-01
4.16500000e+02	7.98014827e-01
4.17500000e+02	7.94258325e-01
4.18500000e+02	7.90445162e-01
4.19500000e+02	7.86574809e-01
4.20500000e+02	7.82646737e-01
4.21500000e+02	7.78660425e-01
4.22500000e+02	7.74615353e-01
4.23500000e+02	7.70511009e-01
4.24500000e+02	7.66346885e-01
4.25500000e+02	7.62122479e-01
4.26500000e+02	7.57837296e-01
4.27500000e+02	7.53490849e-01
4.28500000e+02	7.49082658e-01
4.29500000e+02	7.44612254e-01
4.30500000e+02	7.40079176e-01
4.31500000e+02	7.35482972e-01
4.32500000e+02	7.30823206e-01
4.33500000e+02	7.26099450e-01
4.34500000e+02	7.21311292e-01
4.35500000e+02	7.16458335e-01
4.36500000e+02	7.11540196e-01
4.37500000e+02	7.06556512e-01
4.38500000e+02	7.01506936e-01
4.39500000e+02	6.96391144e-01
4.40500000e+02	6.91208831e-01
4.41500000e+02	6.85959720e-01
4.42500000e+02	6.80643556e-01
4.43500000e+02	6.75260113e-01
4.44500000e+02	6.69809196e-01
4.45500000e+02	6.64290642e-01
4.46500000e+02	6.58704323e-01
4.47500000e+02	6.53050148e-01
4.48500000e+02	6.47328070e-01
4.49500000e+02	6.41538082e-01
4.50500000e+02	6.35680230e-01
4.51500000e+02	6.29754606e-01
4.52500000e+02	6.23761361e-01
4.53500000e+02	6.17700706e-01
4.54500000e+02	6.11572916e-01
4.55500000e+02	6.05378335e-01
4.56500000e+02	5.99117384e-01
4.57500000e+02	5.92790564e-01
4.58500000e+02	5.86398463e-01
4.59500000e+02	5.79941765e-01
4.60500000e+02	5.73421253e-01
4.61500000e+02	5.66837820e-01
4.62500000e+02	5.60192478e-01
4.63500000e+02	5.53486362e-01
4.64500000e+02	5.46720746e-01
4.65500000e+02	5.39897046e-01
4.66500000e+02	5.33016837e-01
4.67500000e+02	5.26081860e-01
4.68500000e+02	5.19094035e-01
4.69500000e+02	5.12055475e-01
4.70500000e+02	5.04968497e-01
4.71500000e+02	4.97835636e-01
4.72500000e+02	4.90659659e-01
4.73500000e+02	4.83443581e-01
4.74500000e+02	4.76190679e-01
4.75500000e+02	4.68904508e-01
4.76500000e+02	4.61588912e-01
4.77500000e+02	4.54248046e-01
4.78500000e+02	4.46886385e-01
4.79500000e+02	4.39508739e-01
4.80500000e+02	4.32120270e-01
4.81500000e+02	4.24726497e-01
4.82500000e+02	4.17333310e-01
4.83500000e+02	4.09946975e-01
4.84500000e+02	4.02574138e-01
4.85500000e+02	3.95221825e-01
4.86500000e+02	3.87897439e-01
4.87500000e+02	3.80608744e-01
4.88500000e+02	3.73363854e-01
4.89500000e+02	3.66171209e-01
4.90500000e+02	3.59039539e-01
4.91500000e+02	3.51977828e-01
4.92500000e+02	3.44995259e-01
4.93500000e+02	3.38101160e-01
4.94500000e+02	3.31304929e-01
4.95500000e+02	3.24615959e-01
4.96500000e+02	3.18043547e-01
4.97500000e+02	3.11596794e-01
4.98500000e+02	3.05284508e-01
4.99500000e+02	2.99115092e-01
5.00500000e+02	2.93096435e-01
5.01500000e+02	2.87235804e-01
5.02500000e+02	2.81539739e-01
5.03500000e+02	2.76013962e-01
5.04500000e+02	2.70663286e-01
5.05500000e+02	2.65491558e-01
5.06500000e+02	2.60501600e-01
5.07500000e+02	2.55695186e-01
5.08500000e+02	2.51073035e-01
5.09500000e+02	2.46634827e-01
5.10500000e+02	2.42379241e-01
5.11500000e+02	2.38304017e-01
5.12500000e+02	2.34406027e-01
5.13500000e+02	2.30681372e-01
5.14500000e+02	2.27125479e-01
5.15500000e+02	2.23733213e-01
5.16500000e+02	2.20498985e-01
5.17500000e+02	2.17416860e-01
5.18500000e+02	2.14480668e-01
5.19500000e+02	2.11684093e-01
5.20500000e+02	2.09020767e-01
5.21500000e+02	2.06484345e-01
5.22500000e+02	2.04068574e-01
5.23500000e+02	2.01767341e-01
5.24500000e+02	1.99574722e-01
5.25500000e+02	1.97485015e-01
5.26500000e+02	1.95492757e-01
5.27500000e+02	1.93592747e-01
5.28500000e+02	1.91780048e-01
5.29500000e+02	1.90049994e-01
5.30500000e+02	1.88398183e-01
5.31500000e+02	1.86820472e-01
5.32500000e+02	1.85312968e-01
5.33500000e+02	1.83872019e-01
5.34500000e+02	1.82494199e-01
5.35500000e+02	1.81176295e-01
5.36500000e+02	1.79915294e-01
5.37500000e+02	1.78708372e-01
5.38500000e+02	1.77552878e-01
5.39500000e+02	1.76446324e-01
5.40500000e+02	1.75386370e-01
5.41500000e+02	1.74370817e-01
5.42500000e+02	1.73397595e-01
5.43500000e+02	1.72464751e-01
5.44500000e+02	1.71570445e-01
5.45500000e+02	1.70712937e-01
5.46500000e+02	1.69890584e-01
5.47500000e+02	1.69101829e-01
5.48500000e+02	1.68345198e-01
5.49500000e+02	1.67619294e-01
5.50500000e+02	1.66922789e-01
5.51500000e+02	1.66254423e-01
5.52500000e+02	1.65612997e-01
5.53500000e+02	1.64997370e-01
5.54500000e+02	1.64406457e-01
5.55500000e+02	1.63839223e-01
5.56500000e+02	1.63294681e-01
5.57500000e+02	1.62771889e-01
5.58500000e+02	1.62269949e-01
5.59500000e+02	1.61788003e-01
5.60500000e+02	1.61325230e-01
5.61500000e+02	1.60880848e-01
5.62500000e+02	1.60454106e-01
5.63500000e+02	1.60044287e-01
5.64500000e+02	1.59650705e-01
5.65500000e+02	1.59272704e-01
5.66500000e+02	1.58909655e-01
5.67500000e+02	1.58560955e-01
5.68500000e+02	1.58226028e-01
5.69500000e+02	1.57904321e-01
5.70500000e+02	1.57595304e-01
5.71500000e+02	1.57298469e-01
5.72500000e+02	1.57013330e-01
5.73500000e+02	1.56739420e-01
5.74500000e+02	1.56476292e-01
5.75500000e+02	1.56223516e-01
5.76500000e+02	1.55980680e-01
5.77500000e+02	1.55747390e-01
5.78500000e+02	1.55523266e-01
5.79500000e+02	1.55307946e-01
5.80500000e+02	1.55101080e-01
5.81500000e+02	1.54902333e-01
5.82500000e+02	1.54711384e-01
5.83500000e+02	1.54527925e-01
5.84500000e+02	1.54351659e-01
5.85500000e+02	1.54182303e-01
5.86500000e+02	1.54019584e-01
5.87500000e+02	1.53863239e-01
5.88500000e+02	1.53713018e-01
5.89500000e+02	1.53568679e-01
5.90500000e+02	1.53429990e-01
5.91500000e+02	1.53296728e-01
5.92500000e+02	1.53168681e-01
5.93500000e+02	1.53045643e-01
5.94500000e+02	1.52927416e-01
5.95500000e+02	1.52813812e-01
5.96500000e+02	1.52704648e-01
5.97500000e+02	1.52599751e-01
5.98500000e+02	1.52498952e-01
5.99500000e+02	1.52402091e-01
6.00500000e+02	1.52309014e-01
6.01500000e+02	1.52219570e-01
6.02500000e+02	1.52133619e-01
6.03500000e+02	1.52051023e-01
6.04500000e+02	1.51971650e-01
6.05500000e+02	1.51895374e-01
6.06500000e+02	1.51822073e-01
6.07500000e+02	1.51751632e-01
6.08500000e+02	1.51683937e-01
6.09500000e+02	1.51618882e-01
6.10500000e+02	1.51556362e-01
6.11500000e+02	1.51496280e-01
6.12500000e+02	1.51438539e-01
6.13500000e+02	1.51383047e-01
6.14500000e+02	1.51329717e-01
6.15500000e+02	1.51278464e-01
6.16500000e+02	1.51229207e-01
6.17500000e+02	1.51181868e-01
6.18500000e+02	1.51136371e-01
6.19500000e+02	1.51092646e-01
6.20500000e+02	1.51050622e-01
6.21500000e+02	1.51010233e-01
6.22500000e+02	1.50971416e-01
6.23500000e+02	1.50934108e-01
6.24500000e+02	1.50898252e-01
6.25500000e+02	1.50863790e-01
6.26500000e+02	1.50830668e-01
6.27500000e+02	1.50798833e-01
6.28500000e+02	1.50768236e-01
6.29500000e+02	1.50738829e-01
6.30500000e+02	1.50710564e-01
6.31500000e+02	1.50683397e-01
6.32500000e+02	1.50657286e-01
6.33500000e+02	1.50632190e-01
6.34500000e+02	1.50608068e-01
6.35500000e+02	1.50584883e-01
6.36500000e+02	1.50562599e-01
6.37500000e+02	1.50541181e-01
6.38500000e+02	1.50520594e-01
6.39500000e+02	1.50500806e-01
6.40500000e+02	1.50481787e-01
6.41500000e+02	1.50463507e-01
6.42500000e+02	1.50445936e-01
6.43500000e+02	1.50429048e-01
6.44500000e+02	1.50412816e-01
6.45500000e+02	1.50397213e-01
6.46500000e+02	1.50382217e-01
6.47500000e+02	1.50367804e-01
6.48500000e+02	1.50353950e-01
6.49500000e+02	1.50340634e-01
6.50500000e+02	1.50327836e-01
6.51500000e+02	1.50315535e-01
6.52500000e+02	1.50303712e-01
6.53500000e+02	1.50292348e-01
6.54500000e+02	1.50281427e-01
6.55500000e+02	1.50270930e-01
6.56500000e+02	1.50260842e-01
6.57500000e+02	1.50251146e-01
6.58500000e+02	1.50241828e-01
6.59500000e+02	1.50232873e-01
6.60500000e+02	1.50224267e-01
