# Profil de Te au temps 7.000000000000077e-12 
# simu : /Volumes/MERCURE/JOBS/Zeq2_tanh_50mic_3p5e21_B0_20ps/GNU/Te@y-c.set
# col 0 : abscisse (um)
# col 1 : Te (keV)
5.00000000e-01	9.99999571e-01
1.50000000e+00	9.99999564e-01
2.50000000e+00	9.99999571e-01
3.50000000e+00	9.99999565e-01
4.50000000e+00	9.99999557e-01
5.50000000e+00	9.99999549e-01
6.50000000e+00	9.99999541e-01
7.50000000e+00	9.99999533e-01
8.50000000e+00	9.99999525e-01
9.50000000e+00	9.99999516e-01
1.05000000e+01	9.99999506e-01
1.15000000e+01	9.99999496e-01
1.25000000e+01	9.99999485e-01
1.35000000e+01	9.99999474e-01
1.45000000e+01	9.99999461e-01
1.55000000e+01	9.99999448e-01
1.65000000e+01	9.99999434e-01
1.75000000e+01	9.99999420e-01
1.85000000e+01	9.99999404e-01
1.95000000e+01	9.99999388e-01
2.05000000e+01	9.99999370e-01
2.15000000e+01	9.99999352e-01
2.25000000e+01	9.99999333e-01
2.35000000e+01	9.99999312e-01
2.45000000e+01	9.99999291e-01
2.55000000e+01	9.99999268e-01
2.65000000e+01	9.99999245e-01
2.75000000e+01	9.99999220e-01
2.85000000e+01	9.99999194e-01
2.95000000e+01	9.99999166e-01
3.05000000e+01	9.99999138e-01
3.15000000e+01	9.99999108e-01
3.25000000e+01	9.99999077e-01
3.35000000e+01	9.99999044e-01
3.45000000e+01	9.99999010e-01
3.55000000e+01	9.99998974e-01
3.65000000e+01	9.99998937e-01
3.75000000e+01	9.99998898e-01
3.85000000e+01	9.99998858e-01
3.95000000e+01	9.99998815e-01
4.05000000e+01	9.99998771e-01
4.15000000e+01	9.99998725e-01
4.25000000e+01	9.99998677e-01
4.35000000e+01	9.99998628e-01
4.45000000e+01	9.99998575e-01
4.55000000e+01	9.99998521e-01
4.65000000e+01	9.99998465e-01
4.75000000e+01	9.99998406e-01
4.85000000e+01	9.99998345e-01
4.95000000e+01	9.99998281e-01
5.05000000e+01	9.99998215e-01
5.15000000e+01	9.99998146e-01
5.25000000e+01	9.99998074e-01
5.35000000e+01	9.99998000e-01
5.45000000e+01	9.99997922e-01
5.55000000e+01	9.99997842e-01
5.65000000e+01	9.99997758e-01
5.75000000e+01	9.99997671e-01
5.85000000e+01	9.99997580e-01
5.95000000e+01	9.99997486e-01
6.05000000e+01	9.99997388e-01
6.15000000e+01	9.99997287e-01
6.25000000e+01	9.99997181e-01
6.35000000e+01	9.99997071e-01
6.45000000e+01	9.99996957e-01
6.55000000e+01	9.99996839e-01
6.65000000e+01	9.99996716e-01
6.75000000e+01	9.99996589e-01
6.85000000e+01	9.99996456e-01
6.95000000e+01	9.99996319e-01
7.05000000e+01	9.99996176e-01
7.15000000e+01	9.99996028e-01
7.25000000e+01	9.99995874e-01
7.35000000e+01	9.99995715e-01
7.45000000e+01	9.99995549e-01
7.55000000e+01	9.99995378e-01
7.65000000e+01	9.99995199e-01
7.75000000e+01	9.99995015e-01
7.85000000e+01	9.99994823e-01
7.95000000e+01	9.99994625e-01
8.05000000e+01	9.99994419e-01
8.15000000e+01	9.99994205e-01
8.25000000e+01	9.99993984e-01
8.35000000e+01	9.99993754e-01
8.45000000e+01	9.99993516e-01
8.55000000e+01	9.99993270e-01
8.65000000e+01	9.99993015e-01
8.75000000e+01	9.99992750e-01
8.85000000e+01	9.99992476e-01
8.95000000e+01	9.99992192e-01
9.05000000e+01	9.99991898e-01
9.15000000e+01	9.99991593e-01
9.25000000e+01	9.99991278e-01
9.35000000e+01	9.99990951e-01
9.45000000e+01	9.99990613e-01
9.55000000e+01	9.99990263e-01
9.65000000e+01	9.99989901e-01
9.75000000e+01	9.99989526e-01
9.85000000e+01	9.99989138e-01
9.95000000e+01	9.99988736e-01
1.00500000e+02	9.99988321e-01
1.01500000e+02	9.99987891e-01
1.02500000e+02	9.99987446e-01
1.03500000e+02	9.99986986e-01
1.04500000e+02	9.99986511e-01
1.05500000e+02	9.99986019e-01
1.06500000e+02	9.99985510e-01
1.07500000e+02	9.99984984e-01
1.08500000e+02	9.99984441e-01
1.09500000e+02	9.99983879e-01
1.10500000e+02	9.99983298e-01
1.11500000e+02	9.99982697e-01
1.12500000e+02	9.99982077e-01
1.13500000e+02	9.99981436e-01
1.14500000e+02	9.99980774e-01
1.15500000e+02	9.99980089e-01
1.16500000e+02	9.99979383e-01
1.17500000e+02	9.99978652e-01
1.18500000e+02	9.99977898e-01
1.19500000e+02	9.99977119e-01
1.20500000e+02	9.99976315e-01
1.21500000e+02	9.99975485e-01
1.22500000e+02	9.99974627e-01
1.23500000e+02	9.99973742e-01
1.24500000e+02	9.99972828e-01
1.25500000e+02	9.99971885e-01
1.26500000e+02	9.99970912e-01
1.27500000e+02	9.99969907e-01
1.28500000e+02	9.99968870e-01
1.29500000e+02	9.99967800e-01
1.30500000e+02	9.99966697e-01
1.31500000e+02	9.99965558e-01
1.32500000e+02	9.99964383e-01
1.33500000e+02	9.99963171e-01
1.34500000e+02	9.99961920e-01
1.35500000e+02	9.99960631e-01
1.36500000e+02	9.99959301e-01
1.37500000e+02	9.99957929e-01
1.38500000e+02	9.99956515e-01
1.39500000e+02	9.99955056e-01
1.40500000e+02	9.99953552e-01
1.41500000e+02	9.99952002e-01
1.42500000e+02	9.99950403e-01
1.43500000e+02	9.99948755e-01
1.44500000e+02	9.99947056e-01
1.45500000e+02	9.99945305e-01
1.46500000e+02	9.99943499e-01
1.47500000e+02	9.99941639e-01
1.48500000e+02	9.99939721e-01
1.49500000e+02	9.99937745e-01
1.50500000e+02	9.99935708e-01
1.51500000e+02	9.99933609e-01
1.52500000e+02	9.99931446e-01
1.53500000e+02	9.99929218e-01
1.54500000e+02	9.99926921e-01
1.55500000e+02	9.99924555e-01
1.56500000e+02	9.99922117e-01
1.57500000e+02	9.99919605e-01
1.58500000e+02	9.99917018e-01
1.59500000e+02	9.99914352e-01
1.60500000e+02	9.99911605e-01
1.61500000e+02	9.99908776e-01
1.62500000e+02	9.99905861e-01
1.63500000e+02	9.99902858e-01
1.64500000e+02	9.99899765e-01
1.65500000e+02	9.99896579e-01
1.66500000e+02	9.99893297e-01
1.67500000e+02	9.99889917e-01
1.68500000e+02	9.99886434e-01
1.69500000e+02	9.99882847e-01
1.70500000e+02	9.99879153e-01
1.71500000e+02	9.99875347e-01
1.72500000e+02	9.99871427e-01
1.73500000e+02	9.99867389e-01
1.74500000e+02	9.99863230e-01
1.75500000e+02	9.99858946e-01
1.76500000e+02	9.99854533e-01
1.77500000e+02	9.99849988e-01
1.78500000e+02	9.99845306e-01
1.79500000e+02	9.99840484e-01
1.80500000e+02	9.99835516e-01
1.81500000e+02	9.99830399e-01
1.82500000e+02	9.99825129e-01
1.83500000e+02	9.99819699e-01
1.84500000e+02	9.99814106e-01
1.85500000e+02	9.99808344e-01
1.86500000e+02	9.99802409e-01
1.87500000e+02	9.99796294e-01
1.88500000e+02	9.99789995e-01
1.89500000e+02	9.99783506e-01
1.90500000e+02	9.99776820e-01
1.91500000e+02	9.99769932e-01
1.92500000e+02	9.99762835e-01
1.93500000e+02	9.99755524e-01
1.94500000e+02	9.99747990e-01
1.95500000e+02	9.99740228e-01
1.96500000e+02	9.99732230e-01
1.97500000e+02	9.99723988e-01
1.98500000e+02	9.99715496e-01
1.99500000e+02	9.99706744e-01
2.00500000e+02	9.99697726e-01
2.01500000e+02	9.99688432e-01
2.02500000e+02	9.99678855e-01
2.03500000e+02	9.99668984e-01
2.04500000e+02	9.99658810e-01
2.05500000e+02	9.99648325e-01
2.06500000e+02	9.99637518e-01
2.07500000e+02	9.99626378e-01
2.08500000e+02	9.99614896e-01
2.09500000e+02	9.99603061e-01
2.10500000e+02	9.99590860e-01
2.11500000e+02	9.99578283e-01
2.12500000e+02	9.99565317e-01
2.13500000e+02	9.99551951e-01
2.14500000e+02	9.99538170e-01
2.15500000e+02	9.99523963e-01
2.16500000e+02	9.99509314e-01
2.17500000e+02	9.99494211e-01
2.18500000e+02	9.99478638e-01
2.19500000e+02	9.99462581e-01
2.20500000e+02	9.99446023e-01
2.21500000e+02	9.99428949e-01
2.22500000e+02	9.99411342e-01
2.23500000e+02	9.99393185e-01
2.24500000e+02	9.99374460e-01
2.25500000e+02	9.99355149e-01
2.26500000e+02	9.99335233e-01
2.27500000e+02	9.99314692e-01
2.28500000e+02	9.99293507e-01
2.29500000e+02	9.99271656e-01
2.30500000e+02	9.99249118e-01
2.31500000e+02	9.99225871e-01
2.32500000e+02	9.99201892e-01
2.33500000e+02	9.99177157e-01
2.34500000e+02	9.99151642e-01
2.35500000e+02	9.99125321e-01
2.36500000e+02	9.99098169e-01
2.37500000e+02	9.99070159e-01
2.38500000e+02	9.99041262e-01
2.39500000e+02	9.99011451e-01
2.40500000e+02	9.98980696e-01
2.41500000e+02	9.98948965e-01
2.42500000e+02	9.98916228e-01
2.43500000e+02	9.98882453e-01
2.44500000e+02	9.98847605e-01
2.45500000e+02	9.98811649e-01
2.46500000e+02	9.98774551e-01
2.47500000e+02	9.98736272e-01
2.48500000e+02	9.98696776e-01
2.49500000e+02	9.98656022e-01
2.50500000e+02	9.98613971e-01
2.51500000e+02	9.98570579e-01
2.52500000e+02	9.98525804e-01
2.53500000e+02	9.98479602e-01
2.54500000e+02	9.98431925e-01
2.55500000e+02	9.98382727e-01
2.56500000e+02	9.98331959e-01
2.57500000e+02	9.98279569e-01
2.58500000e+02	9.98225507e-01
2.59500000e+02	9.98169717e-01
2.60500000e+02	9.98112144e-01
2.61500000e+02	9.98052731e-01
2.62500000e+02	9.97991418e-01
2.63500000e+02	9.97928146e-01
2.64500000e+02	9.97862850e-01
2.65500000e+02	9.97795465e-01
2.66500000e+02	9.97725926e-01
2.67500000e+02	9.97654162e-01
2.68500000e+02	9.97580102e-01
2.69500000e+02	9.97503673e-01
2.70500000e+02	9.97424799e-01
2.71500000e+02	9.97343402e-01
2.72500000e+02	9.97259401e-01
2.73500000e+02	9.97172713e-01
2.74500000e+02	9.97083252e-01
2.75500000e+02	9.96990930e-01
2.76500000e+02	9.96895657e-01
2.77500000e+02	9.96797337e-01
2.78500000e+02	9.96695875e-01
2.79500000e+02	9.96591170e-01
2.80500000e+02	9.96483119e-01
2.81500000e+02	9.96371617e-01
2.82500000e+02	9.96256555e-01
2.83500000e+02	9.96137819e-01
2.84500000e+02	9.96015295e-01
2.85500000e+02	9.95888861e-01
2.86500000e+02	9.95758396e-01
2.87500000e+02	9.95623772e-01
2.88500000e+02	9.95484859e-01
2.89500000e+02	9.95341523e-01
2.90500000e+02	9.95193624e-01
2.91500000e+02	9.95041020e-01
2.92500000e+02	9.94883564e-01
2.93500000e+02	9.94721105e-01
2.94500000e+02	9.94553486e-01
2.95500000e+02	9.94380549e-01
2.96500000e+02	9.94202126e-01
2.97500000e+02	9.94018050e-01
2.98500000e+02	9.93828144e-01
2.99500000e+02	9.93632229e-01
3.00500000e+02	9.93430119e-01
3.01500000e+02	9.93221625e-01
3.02500000e+02	9.93006550e-01
3.03500000e+02	9.92784693e-01
3.04500000e+02	9.92555846e-01
3.05500000e+02	9.92319796e-01
3.06500000e+02	9.92076324e-01
3.07500000e+02	9.91825204e-01
3.08500000e+02	9.91566206e-01
3.09500000e+02	9.91299090e-01
3.10500000e+02	9.91023612e-01
3.11500000e+02	9.90739520e-01
3.12500000e+02	9.90446556e-01
3.13500000e+02	9.90144455e-01
3.14500000e+02	9.89832944e-01
3.15500000e+02	9.89511742e-01
3.16500000e+02	9.89180562e-01
3.17500000e+02	9.88839108e-01
3.18500000e+02	9.88487079e-01
3.19500000e+02	9.88124161e-01
3.20500000e+02	9.87750036e-01
3.21500000e+02	9.87364376e-01
3.22500000e+02	9.86966845e-01
3.23500000e+02	9.86557098e-01
3.24500000e+02	9.86134781e-01
3.25500000e+02	9.85699532e-01
3.26500000e+02	9.85250977e-01
3.27500000e+02	9.84788737e-01
3.28500000e+02	9.84312421e-01
3.29500000e+02	9.83821627e-01
3.30500000e+02	9.83315946e-01
3.31500000e+02	9.82794958e-01
3.32500000e+02	9.82258232e-01
3.33500000e+02	9.81705327e-01
3.34500000e+02	9.81135792e-01
3.35500000e+02	9.80549167e-01
3.36500000e+02	9.79944977e-01
3.37500000e+02	9.79322740e-01
3.38500000e+02	9.78681962e-01
3.39500000e+02	9.78022137e-01
3.40500000e+02	9.77342747e-01
3.41500000e+02	9.76643265e-01
3.42500000e+02	9.75923150e-01
3.43500000e+02	9.75181852e-01
3.44500000e+02	9.74418805e-01
3.45500000e+02	9.73633436e-01
3.46500000e+02	9.72825156e-01
3.47500000e+02	9.71993365e-01
3.48500000e+02	9.71137453e-01
3.49500000e+02	9.70256794e-01
3.50500000e+02	9.69350753e-01
3.51500000e+02	9.68418680e-01
3.52500000e+02	9.67459914e-01
3.53500000e+02	9.66473780e-01
3.54500000e+02	9.65459592e-01
3.55500000e+02	9.64416651e-01
3.56500000e+02	9.63344245e-01
3.57500000e+02	9.62241649e-01
3.58500000e+02	9.61108126e-01
3.59500000e+02	9.59942927e-01
3.60500000e+02	9.58745288e-01
3.61500000e+02	9.57514436e-01
3.62500000e+02	9.56249581e-01
3.63500000e+02	9.54949926e-01
3.64500000e+02	9.53614658e-01
3.65500000e+02	9.52242953e-01
3.66500000e+02	9.50833974e-01
3.67500000e+02	9.49386873e-01
3.68500000e+02	9.47900791e-01
3.69500000e+02	9.46374856e-01
3.70500000e+02	9.44808185e-01
3.71500000e+02	9.43199885e-01
3.72500000e+02	9.41549051e-01
3.73500000e+02	9.39854768e-01
3.74500000e+02	9.38116110e-01
3.75500000e+02	9.36332142e-01
3.76500000e+02	9.34501918e-01
3.77500000e+02	9.32624484e-01
3.78500000e+02	9.30698877e-01
3.79500000e+02	9.28724125e-01
3.80500000e+02	9.26699248e-01
3.81500000e+02	9.24623259e-01
3.82500000e+02	9.22495164e-01
3.83500000e+02	9.20313962e-01
3.84500000e+02	9.18078646e-01
3.85500000e+02	9.15788205e-01
3.86500000e+02	9.13441620e-01
3.87500000e+02	9.11037872e-01
3.88500000e+02	9.08575936e-01
3.89500000e+02	9.06054785e-01
3.90500000e+02	9.03473391e-01
3.91500000e+02	9.00830724e-01
3.92500000e+02	8.98125754e-01
3.93500000e+02	8.95357451e-01
3.94500000e+02	8.92524788e-01
3.95500000e+02	8.89626740e-01
3.96500000e+02	8.86662284e-01
3.97500000e+02	8.83630404e-01
3.98500000e+02	8.80530089e-01
3.99500000e+02	8.77360332e-01
4.00500000e+02	8.74120139e-01
4.01500000e+02	8.70808520e-01
4.02500000e+02	8.67424500e-01
4.03500000e+02	8.63967112e-01
4.04500000e+02	8.60435404e-01
4.05500000e+02	8.56828440e-01
4.06500000e+02	8.53145297e-01
4.07500000e+02	8.49385071e-01
4.08500000e+02	8.45546879e-01
4.09500000e+02	8.41629856e-01
4.10500000e+02	8.37633161e-01
4.11500000e+02	8.33555977e-01
4.12500000e+02	8.29397514e-01
4.13500000e+02	8.25157010e-01
4.14500000e+02	8.20833733e-01
4.15500000e+02	8.16426983e-01
4.16500000e+02	8.11936094e-01
4.17500000e+02	8.07360437e-01
4.18500000e+02	8.02699424e-01
4.19500000e+02	7.97952505e-01
4.20500000e+02	7.93119176e-01
4.21500000e+02	7.88198979e-01
4.22500000e+02	7.83191504e-01
4.23500000e+02	7.78096394e-01
4.24500000e+02	7.72913347e-01
4.25500000e+02	7.67642118e-01
4.26500000e+02	7.62282522e-01
4.27500000e+02	7.56834440e-01
4.28500000e+02	7.51297818e-01
4.29500000e+02	7.45672675e-01
4.30500000e+02	7.39959101e-01
4.31500000e+02	7.34157268e-01
4.32500000e+02	7.28267427e-01
4.33500000e+02	7.22289914e-01
4.34500000e+02	7.16225157e-01
4.35500000e+02	7.10073676e-01
4.36500000e+02	7.03836090e-01
4.37500000e+02	6.97513120e-01
4.38500000e+02	6.91105594e-01
4.39500000e+02	6.84614452e-01
4.40500000e+02	6.78040752e-01
4.41500000e+02	6.71385671e-01
4.42500000e+02	6.64650515e-01
4.43500000e+02	6.57836719e-01
4.44500000e+02	6.50945857e-01
4.45500000e+02	6.43979646e-01
4.46500000e+02	6.36939947e-01
4.47500000e+02	6.29828777e-01
4.48500000e+02	6.22648311e-01
4.49500000e+02	6.15400886e-01
4.50500000e+02	6.08089010e-01
4.51500000e+02	6.00715364e-01
4.52500000e+02	5.93282808e-01
4.53500000e+02	5.85794389e-01
4.54500000e+02	5.78253338e-01
4.55500000e+02	5.70663083e-01
4.56500000e+02	5.63027247e-01
4.57500000e+02	5.55349656e-01
4.58500000e+02	5.47634335e-01
4.59500000e+02	5.39885520e-01
4.60500000e+02	5.32107650e-01
4.61500000e+02	5.24305372e-01
4.62500000e+02	5.16483542e-01
4.63500000e+02	5.08647221e-01
4.64500000e+02	5.00801671e-01
4.65500000e+02	4.92952354e-01
4.66500000e+02	4.85104923e-01
4.67500000e+02	4.77265217e-01
4.68500000e+02	4.69439248e-01
4.69500000e+02	4.61633193e-01
4.70500000e+02	4.53853378e-01
4.71500000e+02	4.46106264e-01
4.72500000e+02	4.38398424e-01
4.73500000e+02	4.30736528e-01
4.74500000e+02	4.23127315e-01
4.75500000e+02	4.15577569e-01
4.76500000e+02	4.08094092e-01
4.77500000e+02	4.00683669e-01
4.78500000e+02	3.93353040e-01
4.79500000e+02	3.86108861e-01
4.80500000e+02	3.78957671e-01
4.81500000e+02	3.71905850e-01
4.82500000e+02	3.64959585e-01
4.83500000e+02	3.58124826e-01
4.84500000e+02	3.51407252e-01
4.85500000e+02	3.44812227e-01
4.86500000e+02	3.38344769e-01
4.87500000e+02	3.32009513e-01
4.88500000e+02	3.25810678e-01
4.89500000e+02	3.19752042e-01
4.90500000e+02	3.13836916e-01
4.91500000e+02	3.08068124e-01
4.92500000e+02	3.02447990e-01
4.93500000e+02	2.96978330e-01
4.94500000e+02	2.91660447e-01
4.95500000e+02	2.86495134e-01
4.96500000e+02	2.81482686e-01
4.97500000e+02	2.76622909e-01
4.98500000e+02	2.71915143e-01
4.99500000e+02	2.67358285e-01
5.00500000e+02	2.62950816e-01
5.01500000e+02	2.58690834e-01
5.02500000e+02	2.54576089e-01
5.03500000e+02	2.50604017e-01
5.04500000e+02	2.46771779e-01
5.05500000e+02	2.43076298e-01
5.06500000e+02	2.39514298e-01
5.07500000e+02	2.36082338e-01
5.08500000e+02	2.32776852e-01
5.09500000e+02	2.29594176e-01
5.10500000e+02	2.26530583e-01
5.11500000e+02	2.23582311e-01
5.12500000e+02	2.20745587e-01
5.13500000e+02	2.18016651e-01
5.14500000e+02	2.15391774e-01
5.15500000e+02	2.12867277e-01
5.16500000e+02	2.10439546e-01
5.17500000e+02	2.08105040e-01
5.18500000e+02	2.05860304e-01
5.19500000e+02	2.03701975e-01
5.20500000e+02	2.01626787e-01
5.21500000e+02	1.99631576e-01
5.22500000e+02	1.97713282e-01
5.23500000e+02	1.95868949e-01
5.24500000e+02	1.94095726e-01
5.25500000e+02	1.92390865e-01
5.26500000e+02	1.90751722e-01
5.27500000e+02	1.89175753e-01
5.28500000e+02	1.87660511e-01
5.29500000e+02	1.86203645e-01
5.30500000e+02	1.84802895e-01
5.31500000e+02	1.83456091e-01
5.32500000e+02	1.82161149e-01
5.33500000e+02	1.80916066e-01
5.34500000e+02	1.79718919e-01
5.35500000e+02	1.78567861e-01
5.36500000e+02	1.77461119e-01
5.37500000e+02	1.76396988e-01
5.38500000e+02	1.75373830e-01
5.39500000e+02	1.74390074e-01
5.40500000e+02	1.73444207e-01
5.41500000e+02	1.72534777e-01
5.42500000e+02	1.71660388e-01
5.43500000e+02	1.70819698e-01
5.44500000e+02	1.70011416e-01
5.45500000e+02	1.69234302e-01
5.46500000e+02	1.68487164e-01
5.47500000e+02	1.67768853e-01
5.48500000e+02	1.67078268e-01
5.49500000e+02	1.66414347e-01
5.50500000e+02	1.65776069e-01
5.51500000e+02	1.65162453e-01
5.52500000e+02	1.64572555e-01
5.53500000e+02	1.64005466e-01
5.54500000e+02	1.63460312e-01
5.55500000e+02	1.62936253e-01
5.56500000e+02	1.62432480e-01
5.57500000e+02	1.61948214e-01
5.58500000e+02	1.61482708e-01
5.59500000e+02	1.61035240e-01
5.60500000e+02	1.60605119e-01
5.61500000e+02	1.60191677e-01
5.62500000e+02	1.59794273e-01
5.63500000e+02	1.59412291e-01
5.64500000e+02	1.59045136e-01
5.65500000e+02	1.58692238e-01
5.66500000e+02	1.58353047e-01
5.67500000e+02	1.58027035e-01
5.68500000e+02	1.57713694e-01
5.69500000e+02	1.57412535e-01
5.70500000e+02	1.57123088e-01
5.71500000e+02	1.56844900e-01
5.72500000e+02	1.56577536e-01
5.73500000e+02	1.56320578e-01
5.74500000e+02	1.56073623e-01
5.75500000e+02	1.55836284e-01
5.76500000e+02	1.55608190e-01
5.77500000e+02	1.55388981e-01
5.78500000e+02	1.55178314e-01
5.79500000e+02	1.54975857e-01
5.80500000e+02	1.54781293e-01
5.81500000e+02	1.54594315e-01
5.82500000e+02	1.54414629e-01
5.83500000e+02	1.54241951e-01
5.84500000e+02	1.54076010e-01
5.85500000e+02	1.53916543e-01
5.86500000e+02	1.53763300e-01
5.87500000e+02	1.53616038e-01
5.88500000e+02	1.53474524e-01
5.89500000e+02	1.53338536e-01
5.90500000e+02	1.53207858e-01
5.91500000e+02	1.53082284e-01
5.92500000e+02	1.52961614e-01
5.93500000e+02	1.52845658e-01
5.94500000e+02	1.52734233e-01
5.95500000e+02	1.52627161e-01
5.96500000e+02	1.52524273e-01
5.97500000e+02	1.52425407e-01
5.98500000e+02	1.52330405e-01
5.99500000e+02	1.52239116e-01
6.00500000e+02	1.52151397e-01
6.01500000e+02	1.52067107e-01
6.02500000e+02	1.51986113e-01
6.03500000e+02	1.51908286e-01
6.04500000e+02	1.51833503e-01
6.05500000e+02	1.51761645e-01
6.06500000e+02	1.51692598e-01
6.07500000e+02	1.51626252e-01
6.08500000e+02	1.51562502e-01
6.09500000e+02	1.51501245e-01
6.10500000e+02	1.51442386e-01
6.11500000e+02	1.51385830e-01
6.12500000e+02	1.51331487e-01
6.13500000e+02	1.51279271e-01
6.14500000e+02	1.51229098e-01
6.15500000e+02	1.51180890e-01
6.16500000e+02	1.51134568e-01
6.17500000e+02	1.51090061e-01
6.18500000e+02	1.51047295e-01
6.19500000e+02	1.51006204e-01
6.20500000e+02	1.50966723e-01
6.21500000e+02	1.50928787e-01
6.22500000e+02	1.50892337e-01
6.23500000e+02	1.50857315e-01
6.24500000e+02	1.50823664e-01
6.25500000e+02	1.50791332e-01
6.26500000e+02	1.50760267e-01
6.27500000e+02	1.50730418e-01
6.28500000e+02	1.50701739e-01
6.29500000e+02	1.50674184e-01
6.30500000e+02	1.50647709e-01
6.31500000e+02	1.50622272e-01
6.32500000e+02	1.50597832e-01
6.33500000e+02	1.50574350e-01
6.34500000e+02	1.50551788e-01
6.35500000e+02	1.50530111e-01
6.36500000e+02	1.50509285e-01
6.37500000e+02	1.50489275e-01
6.38500000e+02	1.50470049e-01
6.39500000e+02	1.50451578e-01
6.40500000e+02	1.50433832e-01
6.41500000e+02	1.50416782e-01
6.42500000e+02	1.50400401e-01
6.43500000e+02	1.50384663e-01
6.44500000e+02	1.50369542e-01
6.45500000e+02	1.50355015e-01
6.46500000e+02	1.50341059e-01
6.47500000e+02	1.50327650e-01
6.48500000e+02	1.50314768e-01
6.49500000e+02	1.50302391e-01
6.50500000e+02	1.50290501e-01
6.51500000e+02	1.50279078e-01
6.52500000e+02	1.50268104e-01
6.53500000e+02	1.50257561e-01
6.54500000e+02	1.50247432e-01
6.55500000e+02	1.50237701e-01
6.56500000e+02	1.50228352e-01
6.57500000e+02	1.50219371e-01
6.58500000e+02	1.50210744e-01
6.59500000e+02	1.50202455e-01
6.60500000e+02	1.50194492e-01
