# Profil de Te au temps 1.000000000000012e-11 
# simu : /Volumes/MERCURE/JOBS/Zeq2_tanh_50mic_3p5e21_B0_20ps/GNU/Te@y-c.set
# col 0 : abscisse (um)
# col 1 : Te (keV)
5.00000000e-01	9.99992730e-01
1.50000000e+00	9.99992718e-01
2.50000000e+00	9.99992716e-01
3.50000000e+00	9.99992695e-01
4.50000000e+00	9.99992667e-01
5.50000000e+00	9.99992635e-01
6.50000000e+00	9.99992598e-01
7.50000000e+00	9.99992557e-01
8.50000000e+00	9.99992509e-01
9.50000000e+00	9.99992457e-01
1.05000000e+01	9.99992399e-01
1.15000000e+01	9.99992335e-01
1.25000000e+01	9.99992266e-01
1.35000000e+01	9.99992191e-01
1.45000000e+01	9.99992111e-01
1.55000000e+01	9.99992025e-01
1.65000000e+01	9.99991933e-01
1.75000000e+01	9.99991835e-01
1.85000000e+01	9.99991731e-01
1.95000000e+01	9.99991622e-01
2.05000000e+01	9.99991506e-01
2.15000000e+01	9.99991385e-01
2.25000000e+01	9.99991257e-01
2.35000000e+01	9.99991123e-01
2.45000000e+01	9.99990983e-01
2.55000000e+01	9.99990837e-01
2.65000000e+01	9.99990684e-01
2.75000000e+01	9.99990525e-01
2.85000000e+01	9.99990360e-01
2.95000000e+01	9.99990188e-01
3.05000000e+01	9.99990009e-01
3.15000000e+01	9.99989823e-01
3.25000000e+01	9.99989631e-01
3.35000000e+01	9.99989432e-01
3.45000000e+01	9.99989226e-01
3.55000000e+01	9.99989013e-01
3.65000000e+01	9.99988793e-01
3.75000000e+01	9.99988565e-01
3.85000000e+01	9.99988331e-01
3.95000000e+01	9.99988088e-01
4.05000000e+01	9.99987839e-01
4.15000000e+01	9.99987581e-01
4.25000000e+01	9.99987316e-01
4.35000000e+01	9.99987042e-01
4.45000000e+01	9.99986761e-01
4.55000000e+01	9.99986472e-01
4.65000000e+01	9.99986174e-01
4.75000000e+01	9.99985868e-01
4.85000000e+01	9.99985553e-01
4.95000000e+01	9.99985230e-01
5.05000000e+01	9.99984897e-01
5.15000000e+01	9.99984556e-01
5.25000000e+01	9.99984205e-01
5.35000000e+01	9.99983846e-01
5.45000000e+01	9.99983476e-01
5.55000000e+01	9.99983097e-01
5.65000000e+01	9.99982708e-01
5.75000000e+01	9.99982309e-01
5.85000000e+01	9.99981899e-01
5.95000000e+01	9.99981480e-01
6.05000000e+01	9.99981049e-01
6.15000000e+01	9.99980608e-01
6.25000000e+01	9.99980155e-01
6.35000000e+01	9.99979691e-01
6.45000000e+01	9.99979216e-01
6.55000000e+01	9.99978729e-01
6.65000000e+01	9.99978230e-01
6.75000000e+01	9.99977718e-01
6.85000000e+01	9.99977194e-01
6.95000000e+01	9.99976657e-01
7.05000000e+01	9.99976107e-01
7.15000000e+01	9.99975544e-01
7.25000000e+01	9.99974967e-01
7.35000000e+01	9.99974376e-01
7.45000000e+01	9.99973771e-01
7.55000000e+01	9.99973151e-01
7.65000000e+01	9.99972516e-01
7.75000000e+01	9.99971866e-01
7.85000000e+01	9.99971200e-01
7.95000000e+01	9.99970519e-01
8.05000000e+01	9.99969821e-01
8.15000000e+01	9.99969106e-01
8.25000000e+01	9.99968374e-01
8.35000000e+01	9.99967625e-01
8.45000000e+01	9.99966857e-01
8.55000000e+01	9.99966072e-01
8.65000000e+01	9.99965267e-01
8.75000000e+01	9.99964444e-01
8.85000000e+01	9.99963600e-01
8.95000000e+01	9.99962737e-01
9.05000000e+01	9.99961852e-01
9.15000000e+01	9.99960947e-01
9.25000000e+01	9.99960020e-01
9.35000000e+01	9.99959070e-01
9.45000000e+01	9.99958098e-01
9.55000000e+01	9.99957103e-01
9.65000000e+01	9.99956083e-01
9.75000000e+01	9.99955039e-01
9.85000000e+01	9.99953970e-01
9.95000000e+01	9.99952875e-01
1.00500000e+02	9.99951754e-01
1.01500000e+02	9.99950605e-01
1.02500000e+02	9.99949429e-01
1.03500000e+02	9.99948224e-01
1.04500000e+02	9.99946990e-01
1.05500000e+02	9.99945726e-01
1.06500000e+02	9.99944432e-01
1.07500000e+02	9.99943105e-01
1.08500000e+02	9.99941747e-01
1.09500000e+02	9.99940355e-01
1.10500000e+02	9.99938929e-01
1.11500000e+02	9.99937468e-01
1.12500000e+02	9.99935972e-01
1.13500000e+02	9.99934438e-01
1.14500000e+02	9.99932867e-01
1.15500000e+02	9.99931257e-01
1.16500000e+02	9.99929607e-01
1.17500000e+02	9.99927917e-01
1.18500000e+02	9.99926184e-01
1.19500000e+02	9.99924409e-01
1.20500000e+02	9.99922589e-01
1.21500000e+02	9.99920724e-01
1.22500000e+02	9.99918813e-01
1.23500000e+02	9.99916854e-01
1.24500000e+02	9.99914846e-01
1.25500000e+02	9.99912787e-01
1.26500000e+02	9.99910677e-01
1.27500000e+02	9.99908513e-01
1.28500000e+02	9.99906295e-01
1.29500000e+02	9.99904021e-01
1.30500000e+02	9.99901690e-01
1.31500000e+02	9.99899299e-01
1.32500000e+02	9.99896848e-01
1.33500000e+02	9.99894335e-01
1.34500000e+02	9.99891757e-01
1.35500000e+02	9.99889114e-01
1.36500000e+02	9.99886404e-01
1.37500000e+02	9.99883623e-01
1.38500000e+02	9.99880772e-01
1.39500000e+02	9.99877848e-01
1.40500000e+02	9.99874848e-01
1.41500000e+02	9.99871771e-01
1.42500000e+02	9.99868614e-01
1.43500000e+02	9.99865376e-01
1.44500000e+02	9.99862054e-01
1.45500000e+02	9.99858646e-01
1.46500000e+02	9.99855149e-01
1.47500000e+02	9.99851562e-01
1.48500000e+02	9.99847881e-01
1.49500000e+02	9.99844103e-01
1.50500000e+02	9.99840227e-01
1.51500000e+02	9.99836250e-01
1.52500000e+02	9.99832168e-01
1.53500000e+02	9.99827979e-01
1.54500000e+02	9.99823679e-01
1.55500000e+02	9.99819267e-01
1.56500000e+02	9.99814738e-01
1.57500000e+02	9.99810089e-01
1.58500000e+02	9.99805316e-01
1.59500000e+02	9.99800418e-01
1.60500000e+02	9.99795389e-01
1.61500000e+02	9.99790226e-01
1.62500000e+02	9.99784926e-01
1.63500000e+02	9.99779484e-01
1.64500000e+02	9.99773897e-01
1.65500000e+02	9.99768160e-01
1.66500000e+02	9.99762269e-01
1.67500000e+02	9.99756220e-01
1.68500000e+02	9.99750009e-01
1.69500000e+02	9.99743630e-01
1.70500000e+02	9.99737079e-01
1.71500000e+02	9.99730351e-01
1.72500000e+02	9.99723441e-01
1.73500000e+02	9.99716344e-01
1.74500000e+02	9.99709054e-01
1.75500000e+02	9.99701566e-01
1.76500000e+02	9.99693874e-01
1.77500000e+02	9.99685973e-01
1.78500000e+02	9.99677856e-01
1.79500000e+02	9.99669517e-01
1.80500000e+02	9.99660950e-01
1.81500000e+02	9.99652148e-01
1.82500000e+02	9.99643105e-01
1.83500000e+02	9.99633813e-01
1.84500000e+02	9.99624266e-01
1.85500000e+02	9.99614455e-01
1.86500000e+02	9.99604373e-01
1.87500000e+02	9.99594013e-01
1.88500000e+02	9.99583367e-01
1.89500000e+02	9.99572425e-01
1.90500000e+02	9.99561180e-01
1.91500000e+02	9.99549623e-01
1.92500000e+02	9.99537744e-01
1.93500000e+02	9.99525535e-01
1.94500000e+02	9.99512985e-01
1.95500000e+02	9.99500084e-01
1.96500000e+02	9.99486823e-01
1.97500000e+02	9.99473191e-01
1.98500000e+02	9.99459177e-01
1.99500000e+02	9.99444770e-01
2.00500000e+02	9.99429958e-01
2.01500000e+02	9.99414730e-01
2.02500000e+02	9.99399073e-01
2.03500000e+02	9.99382975e-01
2.04500000e+02	9.99366423e-01
2.05500000e+02	9.99349403e-01
2.06500000e+02	9.99331901e-01
2.07500000e+02	9.99313905e-01
2.08500000e+02	9.99295398e-01
2.09500000e+02	9.99276366e-01
2.10500000e+02	9.99256794e-01
2.11500000e+02	9.99236665e-01
2.12500000e+02	9.99215964e-01
2.13500000e+02	9.99194673e-01
2.14500000e+02	9.99172774e-01
2.15500000e+02	9.99150251e-01
2.16500000e+02	9.99127084e-01
2.17500000e+02	9.99103254e-01
2.18500000e+02	9.99078743e-01
2.19500000e+02	9.99053529e-01
2.20500000e+02	9.99027592e-01
2.21500000e+02	9.99000910e-01
2.22500000e+02	9.98973462e-01
2.23500000e+02	9.98945225e-01
2.24500000e+02	9.98916175e-01
2.25500000e+02	9.98886289e-01
2.26500000e+02	9.98855542e-01
2.27500000e+02	9.98823907e-01
2.28500000e+02	9.98791359e-01
2.29500000e+02	9.98757871e-01
2.30500000e+02	9.98723415e-01
2.31500000e+02	9.98687962e-01
2.32500000e+02	9.98651482e-01
2.33500000e+02	9.98613946e-01
2.34500000e+02	9.98575322e-01
2.35500000e+02	9.98535577e-01
2.36500000e+02	9.98494679e-01
2.37500000e+02	9.98452592e-01
2.38500000e+02	9.98409283e-01
2.39500000e+02	9.98364715e-01
2.40500000e+02	9.98318849e-01
2.41500000e+02	9.98271649e-01
2.42500000e+02	9.98223075e-01
2.43500000e+02	9.98173085e-01
2.44500000e+02	9.98121637e-01
2.45500000e+02	9.98068690e-01
2.46500000e+02	9.98014198e-01
2.47500000e+02	9.97958115e-01
2.48500000e+02	9.97900395e-01
2.49500000e+02	9.97840989e-01
2.50500000e+02	9.97779848e-01
2.51500000e+02	9.97716919e-01
2.52500000e+02	9.97652151e-01
2.53500000e+02	9.97585489e-01
2.54500000e+02	9.97516877e-01
2.55500000e+02	9.97446258e-01
2.56500000e+02	9.97373572e-01
2.57500000e+02	9.97298760e-01
2.58500000e+02	9.97221757e-01
2.59500000e+02	9.97142500e-01
2.60500000e+02	9.97060923e-01
2.61500000e+02	9.96976957e-01
2.62500000e+02	9.96890532e-01
2.63500000e+02	9.96801577e-01
2.64500000e+02	9.96710017e-01
2.65500000e+02	9.96615776e-01
2.66500000e+02	9.96518775e-01
2.67500000e+02	9.96418935e-01
2.68500000e+02	9.96316172e-01
2.69500000e+02	9.96210401e-01
2.70500000e+02	9.96101534e-01
2.71500000e+02	9.95989482e-01
2.72500000e+02	9.95874151e-01
2.73500000e+02	9.95755447e-01
2.74500000e+02	9.95633273e-01
2.75500000e+02	9.95507527e-01
2.76500000e+02	9.95378106e-01
2.77500000e+02	9.95244904e-01
2.78500000e+02	9.95107813e-01
2.79500000e+02	9.94966720e-01
2.80500000e+02	9.94821510e-01
2.81500000e+02	9.94672065e-01
2.82500000e+02	9.94518264e-01
2.83500000e+02	9.94359983e-01
2.84500000e+02	9.94197092e-01
2.85500000e+02	9.94029461e-01
2.86500000e+02	9.93856955e-01
2.87500000e+02	9.93679435e-01
2.88500000e+02	9.93496758e-01
2.89500000e+02	9.93308780e-01
2.90500000e+02	9.93115350e-01
2.91500000e+02	9.92916315e-01
2.92500000e+02	9.92711516e-01
2.93500000e+02	9.92500792e-01
2.94500000e+02	9.92283976e-01
2.95500000e+02	9.92060898e-01
2.96500000e+02	9.91831384e-01
2.97500000e+02	9.91595254e-01
2.98500000e+02	9.91352325e-01
2.99500000e+02	9.91102407e-01
3.00500000e+02	9.90845308e-01
3.01500000e+02	9.90580829e-01
3.02500000e+02	9.90308768e-01
3.03500000e+02	9.90028916e-01
3.04500000e+02	9.89741061e-01
3.05500000e+02	9.89444982e-01
3.06500000e+02	9.89140458e-01
3.07500000e+02	9.88827258e-01
3.08500000e+02	9.88505148e-01
3.09500000e+02	9.88173887e-01
3.10500000e+02	9.87833228e-01
3.11500000e+02	9.87482920e-01
3.12500000e+02	9.87122705e-01
3.13500000e+02	9.86752318e-01
3.14500000e+02	9.86371489e-01
3.15500000e+02	9.85979942e-01
3.16500000e+02	9.85577393e-01
3.17500000e+02	9.85163553e-01
3.18500000e+02	9.84738126e-01
3.19500000e+02	9.84300809e-01
3.20500000e+02	9.83851294e-01
3.21500000e+02	9.83389262e-01
3.22500000e+02	9.82914392e-01
3.23500000e+02	9.82426352e-01
3.24500000e+02	9.81924805e-01
3.25500000e+02	9.81409406e-01
3.26500000e+02	9.80879803e-01
3.27500000e+02	9.80335637e-01
3.28500000e+02	9.79776539e-01
3.29500000e+02	9.79202134e-01
3.30500000e+02	9.78612041e-01
3.31500000e+02	9.78005869e-01
3.32500000e+02	9.77383219e-01
3.33500000e+02	9.76743685e-01
3.34500000e+02	9.76086853e-01
3.35500000e+02	9.75412299e-01
3.36500000e+02	9.74719594e-01
3.37500000e+02	9.74008297e-01
3.38500000e+02	9.73277962e-01
3.39500000e+02	9.72528133e-01
3.40500000e+02	9.71758345e-01
3.41500000e+02	9.70968126e-01
3.42500000e+02	9.70156994e-01
3.43500000e+02	9.69324459e-01
3.44500000e+02	9.68470022e-01
3.45500000e+02	9.67593176e-01
3.46500000e+02	9.66693405e-01
3.47500000e+02	9.65770183e-01
3.48500000e+02	9.64822977e-01
3.49500000e+02	9.63851244e-01
3.50500000e+02	9.62854433e-01
3.51500000e+02	9.61831984e-01
3.52500000e+02	9.60783327e-01
3.53500000e+02	9.59707885e-01
3.54500000e+02	9.58605071e-01
3.55500000e+02	9.57474289e-01
3.56500000e+02	9.56314935e-01
3.57500000e+02	9.55126396e-01
3.58500000e+02	9.53908050e-01
3.59500000e+02	9.52659268e-01
3.60500000e+02	9.51379409e-01
3.61500000e+02	9.50067828e-01
3.62500000e+02	9.48723867e-01
3.63500000e+02	9.47346863e-01
3.64500000e+02	9.45936144e-01
3.65500000e+02	9.44491028e-01
3.66500000e+02	9.43010827e-01
3.67500000e+02	9.41494845e-01
3.68500000e+02	9.39942377e-01
3.69500000e+02	9.38352711e-01
3.70500000e+02	9.36725128e-01
3.71500000e+02	9.35058901e-01
3.72500000e+02	9.33353296e-01
3.73500000e+02	9.31607572e-01
3.74500000e+02	9.29820981e-01
3.75500000e+02	9.27992769e-01
3.76500000e+02	9.26122176e-01
3.77500000e+02	9.24208435e-01
3.78500000e+02	9.22250773e-01
3.79500000e+02	9.20248413e-01
3.80500000e+02	9.18200570e-01
3.81500000e+02	9.16106456e-01
3.82500000e+02	9.13965279e-01
3.83500000e+02	9.11776240e-01
3.84500000e+02	9.09538537e-01
3.85500000e+02	9.07251366e-01
3.86500000e+02	9.04913918e-01
3.87500000e+02	9.02525380e-01
3.88500000e+02	9.00084939e-01
3.89500000e+02	8.97591777e-01
3.90500000e+02	8.95045077e-01
3.91500000e+02	8.92444019e-01
3.92500000e+02	8.89787782e-01
3.93500000e+02	8.87075546e-01
3.94500000e+02	8.84306489e-01
3.95500000e+02	8.81479793e-01
3.96500000e+02	8.78594638e-01
3.97500000e+02	8.75650207e-01
3.98500000e+02	8.72645686e-01
3.99500000e+02	8.69580263e-01
4.00500000e+02	8.66453130e-01
4.01500000e+02	8.63263485e-01
4.02500000e+02	8.60010528e-01
4.03500000e+02	8.56693467e-01
4.04500000e+02	8.53311516e-01
4.05500000e+02	8.49863895e-01
4.06500000e+02	8.46349834e-01
4.07500000e+02	8.42768571e-01
4.08500000e+02	8.39119353e-01
4.09500000e+02	8.35401441e-01
4.10500000e+02	8.31614104e-01
4.11500000e+02	8.27756626e-01
4.12500000e+02	8.23828303e-01
4.13500000e+02	8.19828448e-01
4.14500000e+02	8.15756389e-01
4.15500000e+02	8.11611470e-01
4.16500000e+02	8.07393056e-01
4.17500000e+02	8.03100530e-01
4.18500000e+02	7.98733296e-01
4.19500000e+02	7.94290783e-01
4.20500000e+02	7.89772440e-01
4.21500000e+02	7.85177745e-01
4.22500000e+02	7.80506201e-01
4.23500000e+02	7.75757343e-01
4.24500000e+02	7.70930733e-01
4.25500000e+02	7.66025969e-01
4.26500000e+02	7.61042680e-01
4.27500000e+02	7.55980536e-01
4.28500000e+02	7.50839243e-01
4.29500000e+02	7.45618549e-01
4.30500000e+02	7.40318245e-01
4.31500000e+02	7.34938169e-01
4.32500000e+02	7.29478207e-01
4.33500000e+02	7.23938299e-01
4.34500000e+02	7.18318435e-01
4.35500000e+02	7.12618666e-01
4.36500000e+02	7.06839104e-01
4.37500000e+02	7.00979924e-01
4.38500000e+02	6.95041368e-01
4.39500000e+02	6.89023752e-01
4.40500000e+02	6.82927466e-01
4.41500000e+02	6.76752980e-01
4.42500000e+02	6.70500848e-01
4.43500000e+02	6.64171713e-01
4.44500000e+02	6.57766312e-01
4.45500000e+02	6.51285478e-01
4.46500000e+02	6.44730150e-01
4.47500000e+02	6.38101376e-01
4.48500000e+02	6.31400317e-01
4.49500000e+02	6.24628256e-01
4.50500000e+02	6.17786604e-01
4.51500000e+02	6.10876902e-01
4.52500000e+02	6.03900833e-01
4.53500000e+02	5.96860226e-01
4.54500000e+02	5.89757065e-01
4.55500000e+02	5.82593492e-01
4.56500000e+02	5.75371820e-01
4.57500000e+02	5.68094533e-01
4.58500000e+02	5.60764303e-01
4.59500000e+02	5.53383988e-01
4.60500000e+02	5.45956646e-01
4.61500000e+02	5.38485538e-01
4.62500000e+02	5.30974138e-01
4.63500000e+02	5.23426139e-01
4.64500000e+02	5.15845457e-01
4.65500000e+02	5.08236240e-01
4.66500000e+02	5.00602871e-01
4.67500000e+02	4.92949972e-01
4.68500000e+02	4.85282409e-01
4.69500000e+02	4.77605290e-01
4.70500000e+02	4.69923972e-01
4.71500000e+02	4.62244049e-01
4.72500000e+02	4.54571360e-01
4.73500000e+02	4.46911976e-01
4.74500000e+02	4.39272193e-01
4.75500000e+02	4.31658522e-01
4.76500000e+02	4.24077674e-01
4.77500000e+02	4.16536544e-01
4.78500000e+02	4.09042188e-01
4.79500000e+02	4.01601798e-01
4.80500000e+02	3.94222675e-01
4.81500000e+02	3.86912194e-01
4.82500000e+02	3.79677768e-01
4.83500000e+02	3.72526808e-01
4.84500000e+02	3.65466678e-01
4.85500000e+02	3.58504645e-01
4.86500000e+02	3.51647832e-01
4.87500000e+02	3.44903161e-01
4.88500000e+02	3.38277302e-01
4.89500000e+02	3.31776615e-01
4.90500000e+02	3.25407099e-01
4.91500000e+02	3.19174332e-01
4.92500000e+02	3.13083430e-01
4.93500000e+02	3.07138994e-01
4.94500000e+02	3.01345068e-01
4.95500000e+02	2.95705112e-01
4.96500000e+02	2.90221966e-01
4.97500000e+02	2.84897838e-01
4.98500000e+02	2.79734287e-01
4.99500000e+02	2.74732228e-01
5.00500000e+02	2.69891936e-01
5.01500000e+02	2.65213068e-01
5.02500000e+02	2.60694682e-01
5.03500000e+02	2.56335276e-01
5.04500000e+02	2.52132826e-01
5.05500000e+02	2.48084833e-01
5.06500000e+02	2.44188371e-01
5.07500000e+02	2.40440141e-01
5.08500000e+02	2.36836526e-01
5.09500000e+02	2.33373643e-01
5.10500000e+02	2.30047397e-01
5.11500000e+02	2.26853533e-01
5.12500000e+02	2.23787685e-01
5.13500000e+02	2.20845417e-01
5.14500000e+02	2.18022266e-01
5.15500000e+02	2.15313777e-01
5.16500000e+02	2.12715534e-01
5.17500000e+02	2.10223185e-01
5.18500000e+02	2.07832466e-01
5.19500000e+02	2.05539220e-01
5.20500000e+02	2.03339406e-01
5.21500000e+02	2.01229114e-01
5.22500000e+02	1.99204571e-01
5.23500000e+02	1.97262144e-01
5.24500000e+02	1.95398345e-01
5.25500000e+02	1.93609827e-01
5.26500000e+02	1.91893389e-01
5.27500000e+02	1.90245968e-01
5.28500000e+02	1.88664637e-01
5.29500000e+02	1.87146601e-01
5.30500000e+02	1.85689195e-01
5.31500000e+02	1.84289873e-01
5.32500000e+02	1.82946207e-01
5.33500000e+02	1.81655882e-01
5.34500000e+02	1.80416689e-01
5.35500000e+02	1.79226517e-01
5.36500000e+02	1.78083355e-01
5.37500000e+02	1.76985280e-01
5.38500000e+02	1.75930458e-01
5.39500000e+02	1.74917133e-01
5.40500000e+02	1.73943630e-01
5.41500000e+02	1.73008346e-01
5.42500000e+02	1.72109747e-01
5.43500000e+02	1.71246367e-01
5.44500000e+02	1.70416800e-01
5.45500000e+02	1.69619702e-01
5.46500000e+02	1.68853785e-01
5.47500000e+02	1.68117814e-01
5.48500000e+02	1.67410606e-01
5.49500000e+02	1.66731026e-01
5.50500000e+02	1.66077988e-01
5.51500000e+02	1.65450447e-01
5.52500000e+02	1.64847402e-01
5.53500000e+02	1.64267893e-01
5.54500000e+02	1.63710997e-01
5.55500000e+02	1.63175830e-01
5.56500000e+02	1.62661541e-01
5.57500000e+02	1.62167315e-01
5.58500000e+02	1.61692368e-01
5.59500000e+02	1.61235948e-01
5.60500000e+02	1.60797331e-01
5.61500000e+02	1.60375823e-01
5.62500000e+02	1.59970757e-01
5.63500000e+02	1.59581491e-01
5.64500000e+02	1.59207411e-01
5.65500000e+02	1.58847924e-01
5.66500000e+02	1.58502462e-01
5.67500000e+02	1.58170478e-01
5.68500000e+02	1.57851447e-01
5.69500000e+02	1.57544865e-01
5.70500000e+02	1.57250246e-01
5.71500000e+02	1.56967125e-01
5.72500000e+02	1.56695053e-01
5.73500000e+02	1.56433600e-01
5.74500000e+02	1.56182353e-01
5.75500000e+02	1.55940913e-01
5.76500000e+02	1.55708898e-01
5.77500000e+02	1.55485941e-01
5.78500000e+02	1.55271690e-01
5.79500000e+02	1.55065803e-01
5.80500000e+02	1.54867957e-01
5.81500000e+02	1.54677836e-01
5.82500000e+02	1.54495141e-01
5.83500000e+02	1.54319580e-01
5.84500000e+02	1.54150877e-01
5.85500000e+02	1.53988762e-01
5.86500000e+02	1.53832981e-01
5.87500000e+02	1.53683284e-01
5.88500000e+02	1.53539436e-01
5.89500000e+02	1.53401207e-01
5.90500000e+02	1.53268378e-01
5.91500000e+02	1.53140739e-01
5.92500000e+02	1.53018087e-01
5.93500000e+02	1.52900228e-01
5.94500000e+02	1.52786973e-01
5.95500000e+02	1.52678144e-01
5.96500000e+02	1.52573567e-01
5.97500000e+02	1.52473077e-01
5.98500000e+02	1.52376514e-01
5.99500000e+02	1.52283724e-01
6.00500000e+02	1.52194560e-01
6.01500000e+02	1.52108880e-01
6.02500000e+02	1.52026549e-01
6.03500000e+02	1.51947436e-01
6.04500000e+02	1.51871414e-01
6.05500000e+02	1.51798363e-01
6.06500000e+02	1.51728167e-01
6.07500000e+02	1.51660714e-01
6.08500000e+02	1.51595897e-01
6.09500000e+02	1.51533614e-01
6.10500000e+02	1.51473764e-01
6.11500000e+02	1.51416253e-01
6.12500000e+02	1.51360990e-01
6.13500000e+02	1.51307886e-01
6.14500000e+02	1.51256858e-01
6.15500000e+02	1.51207824e-01
6.16500000e+02	1.51160706e-01
6.17500000e+02	1.51115429e-01
6.18500000e+02	1.51071922e-01
6.19500000e+02	1.51030114e-01
6.20500000e+02	1.50989941e-01
6.21500000e+02	1.50951337e-01
6.22500000e+02	1.50914241e-01
6.23500000e+02	1.50878595e-01
6.24500000e+02	1.50844342e-01
6.25500000e+02	1.50811428e-01
6.26500000e+02	1.50779799e-01
6.27500000e+02	1.50749406e-01
6.28500000e+02	1.50720201e-01
6.29500000e+02	1.50692137e-01
6.30500000e+02	1.50665169e-01
6.31500000e+02	1.50639255e-01
6.32500000e+02	1.50614354e-01
6.33500000e+02	1.50590425e-01
6.34500000e+02	1.50567432e-01
6.35500000e+02	1.50545336e-01
6.36500000e+02	1.50524104e-01
6.37500000e+02	1.50503702e-01
6.38500000e+02	1.50484096e-01
6.39500000e+02	1.50465257e-01
6.40500000e+02	1.50447154e-01
6.41500000e+02	1.50429758e-01
6.42500000e+02	1.50413041e-01
6.43500000e+02	1.50396978e-01
6.44500000e+02	1.50381543e-01
6.45500000e+02	1.50366711e-01
6.46500000e+02	1.50352458e-01
6.47500000e+02	1.50338762e-01
6.48500000e+02	1.50325602e-01
6.49500000e+02	1.50312956e-01
6.50500000e+02	1.50300804e-01
6.51500000e+02	1.50289128e-01
6.52500000e+02	1.50277908e-01
6.53500000e+02	1.50267126e-01
6.54500000e+02	1.50256766e-01
6.55500000e+02	1.50246811e-01
6.56500000e+02	1.50237246e-01
6.57500000e+02	1.50228055e-01
6.58500000e+02	1.50219223e-01
6.59500000e+02	1.50210737e-01
6.60500000e+02	1.50202584e-01
