# Profil de Te au temps 6.000000000000061e-12 
# simu : /Volumes/MERCURE/JOBS/Zeq2_tanh_50mic_3p5e21_B0_20ps/GNU/Te@y-c.set
# col 0 : abscisse (um)
# col 1 : Te (keV)
5.00000000e-01	9.99999838e-01
1.50000000e+00	9.99999832e-01
2.50000000e+00	9.99999840e-01
3.50000000e+00	9.99999835e-01
4.50000000e+00	9.99999828e-01
5.50000000e+00	9.99999823e-01
6.50000000e+00	9.99999817e-01
7.50000000e+00	9.99999812e-01
8.50000000e+00	9.99999807e-01
9.50000000e+00	9.99999802e-01
1.05000000e+01	9.99999797e-01
1.15000000e+01	9.99999792e-01
1.25000000e+01	9.99999786e-01
1.35000000e+01	9.99999781e-01
1.45000000e+01	9.99999775e-01
1.55000000e+01	9.99999768e-01
1.65000000e+01	9.99999762e-01
1.75000000e+01	9.99999755e-01
1.85000000e+01	9.99999748e-01
1.95000000e+01	9.99999740e-01
2.05000000e+01	9.99999732e-01
2.15000000e+01	9.99999724e-01
2.25000000e+01	9.99999715e-01
2.35000000e+01	9.99999705e-01
2.45000000e+01	9.99999696e-01
2.55000000e+01	9.99999686e-01
2.65000000e+01	9.99999675e-01
2.75000000e+01	9.99999664e-01
2.85000000e+01	9.99999652e-01
2.95000000e+01	9.99999640e-01
3.05000000e+01	9.99999627e-01
3.15000000e+01	9.99999614e-01
3.25000000e+01	9.99999600e-01
3.35000000e+01	9.99999585e-01
3.45000000e+01	9.99999570e-01
3.55000000e+01	9.99999554e-01
3.65000000e+01	9.99999538e-01
3.75000000e+01	9.99999520e-01
3.85000000e+01	9.99999502e-01
3.95000000e+01	9.99999483e-01
4.05000000e+01	9.99999464e-01
4.15000000e+01	9.99999443e-01
4.25000000e+01	9.99999422e-01
4.35000000e+01	9.99999399e-01
4.45000000e+01	9.99999376e-01
4.55000000e+01	9.99999352e-01
4.65000000e+01	9.99999326e-01
4.75000000e+01	9.99999300e-01
4.85000000e+01	9.99999272e-01
4.95000000e+01	9.99999244e-01
5.05000000e+01	9.99999214e-01
5.15000000e+01	9.99999183e-01
5.25000000e+01	9.99999150e-01
5.35000000e+01	9.99999116e-01
5.45000000e+01	9.99999081e-01
5.55000000e+01	9.99999045e-01
5.65000000e+01	9.99999007e-01
5.75000000e+01	9.99998967e-01
5.85000000e+01	9.99998926e-01
5.95000000e+01	9.99998883e-01
6.05000000e+01	9.99998838e-01
6.15000000e+01	9.99998791e-01
6.25000000e+01	9.99998743e-01
6.35000000e+01	9.99998692e-01
6.45000000e+01	9.99998640e-01
6.55000000e+01	9.99998585e-01
6.65000000e+01	9.99998528e-01
6.75000000e+01	9.99998469e-01
6.85000000e+01	9.99998407e-01
6.95000000e+01	9.99998343e-01
7.05000000e+01	9.99998276e-01
7.15000000e+01	9.99998207e-01
7.25000000e+01	9.99998134e-01
7.35000000e+01	9.99998059e-01
7.45000000e+01	9.99997981e-01
7.55000000e+01	9.99997899e-01
7.65000000e+01	9.99997815e-01
7.75000000e+01	9.99997727e-01
7.85000000e+01	9.99997635e-01
7.95000000e+01	9.99997540e-01
8.05000000e+01	9.99997440e-01
8.15000000e+01	9.99997337e-01
8.25000000e+01	9.99997230e-01
8.35000000e+01	9.99997118e-01
8.45000000e+01	9.99997002e-01
8.55000000e+01	9.99996882e-01
8.65000000e+01	9.99996756e-01
8.75000000e+01	9.99996625e-01
8.85000000e+01	9.99996490e-01
8.95000000e+01	9.99996349e-01
9.05000000e+01	9.99996202e-01
9.15000000e+01	9.99996049e-01
9.25000000e+01	9.99995890e-01
9.35000000e+01	9.99995725e-01
9.45000000e+01	9.99995554e-01
9.55000000e+01	9.99995376e-01
9.65000000e+01	9.99995190e-01
9.75000000e+01	9.99994997e-01
9.85000000e+01	9.99994797e-01
9.95000000e+01	9.99994589e-01
1.00500000e+02	9.99994372e-01
1.01500000e+02	9.99994147e-01
1.02500000e+02	9.99993914e-01
1.03500000e+02	9.99993671e-01
1.04500000e+02	9.99993418e-01
1.05500000e+02	9.99993156e-01
1.06500000e+02	9.99992883e-01
1.07500000e+02	9.99992600e-01
1.08500000e+02	9.99992306e-01
1.09500000e+02	9.99992000e-01
1.10500000e+02	9.99991683e-01
1.11500000e+02	9.99991353e-01
1.12500000e+02	9.99991010e-01
1.13500000e+02	9.99990654e-01
1.14500000e+02	9.99990285e-01
1.15500000e+02	9.99989901e-01
1.16500000e+02	9.99989502e-01
1.17500000e+02	9.99989089e-01
1.18500000e+02	9.99988659e-01
1.19500000e+02	9.99988213e-01
1.20500000e+02	9.99987750e-01
1.21500000e+02	9.99987269e-01
1.22500000e+02	9.99986770e-01
1.23500000e+02	9.99986252e-01
1.24500000e+02	9.99985714e-01
1.25500000e+02	9.99985156e-01
1.26500000e+02	9.99984577e-01
1.27500000e+02	9.99983976e-01
1.28500000e+02	9.99983353e-01
1.29500000e+02	9.99982706e-01
1.30500000e+02	9.99982036e-01
1.31500000e+02	9.99981340e-01
1.32500000e+02	9.99980618e-01
1.33500000e+02	9.99979869e-01
1.34500000e+02	9.99979093e-01
1.35500000e+02	9.99978288e-01
1.36500000e+02	9.99977453e-01
1.37500000e+02	9.99976588e-01
1.38500000e+02	9.99975691e-01
1.39500000e+02	9.99974760e-01
1.40500000e+02	9.99973796e-01
1.41500000e+02	9.99972797e-01
1.42500000e+02	9.99971761e-01
1.43500000e+02	9.99970688e-01
1.44500000e+02	9.99969576e-01
1.45500000e+02	9.99968423e-01
1.46500000e+02	9.99967229e-01
1.47500000e+02	9.99965993e-01
1.48500000e+02	9.99964711e-01
1.49500000e+02	9.99963384e-01
1.50500000e+02	9.99962010e-01
1.51500000e+02	9.99960586e-01
1.52500000e+02	9.99959112e-01
1.53500000e+02	9.99957586e-01
1.54500000e+02	9.99956005e-01
1.55500000e+02	9.99954369e-01
1.56500000e+02	9.99952675e-01
1.57500000e+02	9.99950922e-01
1.58500000e+02	9.99949107e-01
1.59500000e+02	9.99947228e-01
1.60500000e+02	9.99945284e-01
1.61500000e+02	9.99943273e-01
1.62500000e+02	9.99941191e-01
1.63500000e+02	9.99939037e-01
1.64500000e+02	9.99936809e-01
1.65500000e+02	9.99934504e-01
1.66500000e+02	9.99932119e-01
1.67500000e+02	9.99929653e-01
1.68500000e+02	9.99927101e-01
1.69500000e+02	9.99924463e-01
1.70500000e+02	9.99921734e-01
1.71500000e+02	9.99918912e-01
1.72500000e+02	9.99915994e-01
1.73500000e+02	9.99912977e-01
1.74500000e+02	9.99909858e-01
1.75500000e+02	9.99906633e-01
1.76500000e+02	9.99903300e-01
1.77500000e+02	9.99899854e-01
1.78500000e+02	9.99896292e-01
1.79500000e+02	9.99892610e-01
1.80500000e+02	9.99888805e-01
1.81500000e+02	9.99884872e-01
1.82500000e+02	9.99880808e-01
1.83500000e+02	9.99876609e-01
1.84500000e+02	9.99872270e-01
1.85500000e+02	9.99867786e-01
1.86500000e+02	9.99863153e-01
1.87500000e+02	9.99858367e-01
1.88500000e+02	9.99853422e-01
1.89500000e+02	9.99848314e-01
1.90500000e+02	9.99843037e-01
1.91500000e+02	9.99837586e-01
1.92500000e+02	9.99831955e-01
1.93500000e+02	9.99826139e-01
1.94500000e+02	9.99820132e-01
1.95500000e+02	9.99813928e-01
1.96500000e+02	9.99807520e-01
1.97500000e+02	9.99800902e-01
1.98500000e+02	9.99794067e-01
1.99500000e+02	9.99787009e-01
2.00500000e+02	9.99779720e-01
2.01500000e+02	9.99772193e-01
2.02500000e+02	9.99764421e-01
2.03500000e+02	9.99756395e-01
2.04500000e+02	9.99748107e-01
2.05500000e+02	9.99739549e-01
2.06500000e+02	9.99730713e-01
2.07500000e+02	9.99721589e-01
2.08500000e+02	9.99712168e-01
2.09500000e+02	9.99702441e-01
2.10500000e+02	9.99692398e-01
2.11500000e+02	9.99682029e-01
2.12500000e+02	9.99671322e-01
2.13500000e+02	9.99660268e-01
2.14500000e+02	9.99648855e-01
2.15500000e+02	9.99637071e-01
2.16500000e+02	9.99624904e-01
2.17500000e+02	9.99612342e-01
2.18500000e+02	9.99599373e-01
2.19500000e+02	9.99585982e-01
2.20500000e+02	9.99572156e-01
2.21500000e+02	9.99557881e-01
2.22500000e+02	9.99543143e-01
2.23500000e+02	9.99527925e-01
2.24500000e+02	9.99512213e-01
2.25500000e+02	9.99495990e-01
2.26500000e+02	9.99479240e-01
2.27500000e+02	9.99461945e-01
2.28500000e+02	9.99444087e-01
2.29500000e+02	9.99425648e-01
2.30500000e+02	9.99406608e-01
2.31500000e+02	9.99386948e-01
2.32500000e+02	9.99366648e-01
2.33500000e+02	9.99345686e-01
2.34500000e+02	9.99324040e-01
2.35500000e+02	9.99301688e-01
2.36500000e+02	9.99278606e-01
2.37500000e+02	9.99254770e-01
2.38500000e+02	9.99230156e-01
2.39500000e+02	9.99204737e-01
2.40500000e+02	9.99178486e-01
2.41500000e+02	9.99151377e-01
2.42500000e+02	9.99123380e-01
2.43500000e+02	9.99094466e-01
2.44500000e+02	9.99064604e-01
2.45500000e+02	9.99033764e-01
2.46500000e+02	9.99001912e-01
2.47500000e+02	9.98969015e-01
2.48500000e+02	9.98935037e-01
2.49500000e+02	9.98899944e-01
2.50500000e+02	9.98863697e-01
2.51500000e+02	9.98826259e-01
2.52500000e+02	9.98787589e-01
2.53500000e+02	9.98747647e-01
2.54500000e+02	9.98706390e-01
2.55500000e+02	9.98663775e-01
2.56500000e+02	9.98619756e-01
2.57500000e+02	9.98574286e-01
2.58500000e+02	9.98527317e-01
2.59500000e+02	9.98478799e-01
2.60500000e+02	9.98428681e-01
2.61500000e+02	9.98376910e-01
2.62500000e+02	9.98323429e-01
2.63500000e+02	9.98268183e-01
2.64500000e+02	9.98211113e-01
2.65500000e+02	9.98152158e-01
2.66500000e+02	9.98091256e-01
2.67500000e+02	9.98028341e-01
2.68500000e+02	9.97963348e-01
2.69500000e+02	9.97896206e-01
2.70500000e+02	9.97826846e-01
2.71500000e+02	9.97755193e-01
2.72500000e+02	9.97681172e-01
2.73500000e+02	9.97604704e-01
2.74500000e+02	9.97525708e-01
2.75500000e+02	9.97444101e-01
2.76500000e+02	9.97359797e-01
2.77500000e+02	9.97272706e-01
2.78500000e+02	9.97182738e-01
2.79500000e+02	9.97089797e-01
2.80500000e+02	9.96993785e-01
2.81500000e+02	9.96894602e-01
2.82500000e+02	9.96792143e-01
2.83500000e+02	9.96686302e-01
2.84500000e+02	9.96576967e-01
2.85500000e+02	9.96464024e-01
2.86500000e+02	9.96347355e-01
2.87500000e+02	9.96226839e-01
2.88500000e+02	9.96102350e-01
2.89500000e+02	9.95973759e-01
2.90500000e+02	9.95840932e-01
2.91500000e+02	9.95703733e-01
2.92500000e+02	9.95562019e-01
2.93500000e+02	9.95415644e-01
2.94500000e+02	9.95264457e-01
2.95500000e+02	9.95108303e-01
2.96500000e+02	9.94947023e-01
2.97500000e+02	9.94780450e-01
2.98500000e+02	9.94608415e-01
2.99500000e+02	9.94430743e-01
3.00500000e+02	9.94247254e-01
3.01500000e+02	9.94057761e-01
3.02500000e+02	9.93862073e-01
3.03500000e+02	9.93659992e-01
3.04500000e+02	9.93451315e-01
3.05500000e+02	9.93235834e-01
3.06500000e+02	9.93013333e-01
3.07500000e+02	9.92783589e-01
3.08500000e+02	9.92546375e-01
3.09500000e+02	9.92301456e-01
3.10500000e+02	9.92048590e-01
3.11500000e+02	9.91787527e-01
3.12500000e+02	9.91518012e-01
3.13500000e+02	9.91239781e-01
3.14500000e+02	9.90952564e-01
3.15500000e+02	9.90656081e-01
3.16500000e+02	9.90350046e-01
3.17500000e+02	9.90034164e-01
3.18500000e+02	9.89708132e-01
3.19500000e+02	9.89371639e-01
3.20500000e+02	9.89024365e-01
3.21500000e+02	9.88665980e-01
3.22500000e+02	9.88296147e-01
3.23500000e+02	9.87914518e-01
3.24500000e+02	9.87520736e-01
3.25500000e+02	9.87114436e-01
3.26500000e+02	9.86695242e-01
3.27500000e+02	9.86262767e-01
3.28500000e+02	9.85816614e-01
3.29500000e+02	9.85356379e-01
3.30500000e+02	9.84881642e-01
3.31500000e+02	9.84391976e-01
3.32500000e+02	9.83886942e-01
3.33500000e+02	9.83366090e-01
3.34500000e+02	9.82828959e-01
3.35500000e+02	9.82275074e-01
3.36500000e+02	9.81703952e-01
3.37500000e+02	9.81115095e-01
3.38500000e+02	9.80507994e-01
3.39500000e+02	9.79882129e-01
3.40500000e+02	9.79236965e-01
3.41500000e+02	9.78571956e-01
3.42500000e+02	9.77886543e-01
3.43500000e+02	9.77180155e-01
3.44500000e+02	9.76452205e-01
3.45500000e+02	9.75702094e-01
3.46500000e+02	9.74929212e-01
3.47500000e+02	9.74132933e-01
3.48500000e+02	9.73312617e-01
3.49500000e+02	9.72467611e-01
3.50500000e+02	9.71597248e-01
3.51500000e+02	9.70700847e-01
3.52500000e+02	9.69777714e-01
3.53500000e+02	9.68827138e-01
3.54500000e+02	9.67848396e-01
3.55500000e+02	9.66840750e-01
3.56500000e+02	9.65803447e-01
3.57500000e+02	9.64735722e-01
3.58500000e+02	9.63636791e-01
3.59500000e+02	9.62505861e-01
3.60500000e+02	9.61342120e-01
3.61500000e+02	9.60144743e-01
3.62500000e+02	9.58912893e-01
3.63500000e+02	9.57645715e-01
3.64500000e+02	9.56342343e-01
3.65500000e+02	9.55001894e-01
3.66500000e+02	9.53623474e-01
3.67500000e+02	9.52206172e-01
3.68500000e+02	9.50749066e-01
3.69500000e+02	9.49251218e-01
3.70500000e+02	9.47711680e-01
3.71500000e+02	9.46129488e-01
3.72500000e+02	9.44503667e-01
3.73500000e+02	9.42833228e-01
3.74500000e+02	9.41117172e-01
3.75500000e+02	9.39354487e-01
3.76500000e+02	9.37544148e-01
3.77500000e+02	9.35685123e-01
3.78500000e+02	9.33776365e-01
3.79500000e+02	9.31816821e-01
3.80500000e+02	9.29805425e-01
3.81500000e+02	9.27741105e-01
3.82500000e+02	9.25622779e-01
3.83500000e+02	9.23449357e-01
3.84500000e+02	9.21219743e-01
3.85500000e+02	9.18932834e-01
3.86500000e+02	9.16587522e-01
3.87500000e+02	9.14182693e-01
3.88500000e+02	9.11717231e-01
3.89500000e+02	9.09190015e-01
3.90500000e+02	9.06599922e-01
3.91500000e+02	9.03945829e-01
3.92500000e+02	9.01226613e-01
3.93500000e+02	8.98441150e-01
3.94500000e+02	8.95588319e-01
3.95500000e+02	8.92667004e-01
3.96500000e+02	8.89676091e-01
3.97500000e+02	8.86614472e-01
3.98500000e+02	8.83481048e-01
3.99500000e+02	8.80274726e-01
4.00500000e+02	8.76994425e-01
4.01500000e+02	8.73639073e-01
4.02500000e+02	8.70207615e-01
4.03500000e+02	8.66699007e-01
4.04500000e+02	8.63112223e-01
4.05500000e+02	8.59446254e-01
4.06500000e+02	8.55700113e-01
4.07500000e+02	8.51872832e-01
4.08500000e+02	8.47963471e-01
4.09500000e+02	8.43971111e-01
4.10500000e+02	8.39894865e-01
4.11500000e+02	8.35733874e-01
4.12500000e+02	8.31487314e-01
4.13500000e+02	8.27154391e-01
4.14500000e+02	8.22734355e-01
4.15500000e+02	8.18226490e-01
4.16500000e+02	8.13630125e-01
4.17500000e+02	8.08944636e-01
4.18500000e+02	8.04169442e-01
4.19500000e+02	7.99304017e-01
4.20500000e+02	7.94347888e-01
4.21500000e+02	7.89300638e-01
4.22500000e+02	7.84161910e-01
4.23500000e+02	7.78931410e-01
4.24500000e+02	7.73608913e-01
4.25500000e+02	7.68194260e-01
4.26500000e+02	7.62687369e-01
4.27500000e+02	7.57088235e-01
4.28500000e+02	7.51396932e-01
4.29500000e+02	7.45613621e-01
4.30500000e+02	7.39738550e-01
4.31500000e+02	7.33772064e-01
4.32500000e+02	7.27714600e-01
4.33500000e+02	7.21566700e-01
4.34500000e+02	7.15329011e-01
4.35500000e+02	7.09002291e-01
4.36500000e+02	7.02587411e-01
4.37500000e+02	6.96085365e-01
4.38500000e+02	6.89497269e-01
4.39500000e+02	6.82824369e-01
4.40500000e+02	6.76068045e-01
4.41500000e+02	6.69229816e-01
4.42500000e+02	6.62311344e-01
4.43500000e+02	6.55314443e-01
4.44500000e+02	6.48241077e-01
4.45500000e+02	6.41093372e-01
4.46500000e+02	6.33873616e-01
4.47500000e+02	6.26584264e-01
4.48500000e+02	6.19227948e-01
4.49500000e+02	6.11807472e-01
4.50500000e+02	6.04325826e-01
4.51500000e+02	5.96786184e-01
4.52500000e+02	5.89191907e-01
4.53500000e+02	5.81546552e-01
4.54500000e+02	5.73853867e-01
4.55500000e+02	5.66117799e-01
4.56500000e+02	5.58342495e-01
4.57500000e+02	5.50532297e-01
4.58500000e+02	5.42691752e-01
4.59500000e+02	5.34825600e-01
4.60500000e+02	5.26938780e-01
4.61500000e+02	5.19036424e-01
4.62500000e+02	5.11123852e-01
4.63500000e+02	5.03206569e-01
4.64500000e+02	4.95290252e-01
4.65500000e+02	4.87380749e-01
4.66500000e+02	4.79484061e-01
4.67500000e+02	4.71606334e-01
4.68500000e+02	4.63753843e-01
4.69500000e+02	4.55932975e-01
4.70500000e+02	4.48150214e-01
4.71500000e+02	4.40412114e-01
4.72500000e+02	4.32725284e-01
4.73500000e+02	4.25096356e-01
4.74500000e+02	4.17531965e-01
4.75500000e+02	4.10038714e-01
4.76500000e+02	4.02623150e-01
4.77500000e+02	3.95291728e-01
4.78500000e+02	3.88050778e-01
4.79500000e+02	3.80906474e-01
4.80500000e+02	3.73864797e-01
4.81500000e+02	3.66931502e-01
4.82500000e+02	3.60112082e-01
4.83500000e+02	3.53411739e-01
4.84500000e+02	3.46835345e-01
4.85500000e+02	3.40387418e-01
4.86500000e+02	3.34072095e-01
4.87500000e+02	3.27893102e-01
4.88500000e+02	3.21853737e-01
4.89500000e+02	3.15956853e-01
4.90500000e+02	3.10204845e-01
4.91500000e+02	3.04599640e-01
4.92500000e+02	2.99142695e-01
4.93500000e+02	2.93835000e-01
4.94500000e+02	2.88677080e-01
4.95500000e+02	2.83669012e-01
4.96500000e+02	2.78810433e-01
4.97500000e+02	2.74100567e-01
4.98500000e+02	2.69538242e-01
4.99500000e+02	2.65121919e-01
5.00500000e+02	2.60849723e-01
5.01500000e+02	2.56719467e-01
5.02500000e+02	2.52728692e-01
5.03500000e+02	2.48874694e-01
5.04500000e+02	2.45154561e-01
5.05500000e+02	2.41565201e-01
5.06500000e+02	2.38103379e-01
5.07500000e+02	2.34765743e-01
5.08500000e+02	2.31548855e-01
5.09500000e+02	2.28449217e-01
5.10500000e+02	2.25463294e-01
5.11500000e+02	2.22587540e-01
5.12500000e+02	2.19818414e-01
5.13500000e+02	2.17152400e-01
5.14500000e+02	2.14586021e-01
5.15500000e+02	2.12115850e-01
5.16500000e+02	2.09738527e-01
5.17500000e+02	2.07450760e-01
5.18500000e+02	2.05249337e-01
5.19500000e+02	2.03131131e-01
5.20500000e+02	2.01093101e-01
5.21500000e+02	1.99132299e-01
5.22500000e+02	1.97245869e-01
5.23500000e+02	1.95431046e-01
5.24500000e+02	1.93685159e-01
5.25500000e+02	1.92005631e-01
5.26500000e+02	1.90389973e-01
5.27500000e+02	1.88835786e-01
5.28500000e+02	1.87340760e-01
5.29500000e+02	1.85902666e-01
5.30500000e+02	1.84519361e-01
5.31500000e+02	1.83188779e-01
5.32500000e+02	1.81908933e-01
5.33500000e+02	1.80677910e-01
5.34500000e+02	1.79493868e-01
5.35500000e+02	1.78355035e-01
5.36500000e+02	1.77259705e-01
5.37500000e+02	1.76206238e-01
5.38500000e+02	1.75193053e-01
5.39500000e+02	1.74218629e-01
5.40500000e+02	1.73281504e-01
5.41500000e+02	1.72380270e-01
5.42500000e+02	1.71513569e-01
5.43500000e+02	1.70680097e-01
5.44500000e+02	1.69878599e-01
5.45500000e+02	1.69107863e-01
5.46500000e+02	1.68366727e-01
5.47500000e+02	1.67654070e-01
5.48500000e+02	1.66968812e-01
5.49500000e+02	1.66309914e-01
5.50500000e+02	1.65676377e-01
5.51500000e+02	1.65067239e-01
5.52500000e+02	1.64481571e-01
5.53500000e+02	1.63918482e-01
5.54500000e+02	1.63377113e-01
5.55500000e+02	1.62856636e-01
5.56500000e+02	1.62356257e-01
5.57500000e+02	1.61875208e-01
5.58500000e+02	1.61412751e-01
5.59500000e+02	1.60968177e-01
5.60500000e+02	1.60540803e-01
5.61500000e+02	1.60129970e-01
5.62500000e+02	1.59735046e-01
5.63500000e+02	1.59355420e-01
5.64500000e+02	1.58990507e-01
5.65500000e+02	1.58639743e-01
5.66500000e+02	1.58302583e-01
5.67500000e+02	1.57978507e-01
5.68500000e+02	1.57667010e-01
5.69500000e+02	1.57367609e-01
5.70500000e+02	1.57079839e-01
5.71500000e+02	1.56803252e-01
5.72500000e+02	1.56537416e-01
5.73500000e+02	1.56281917e-01
5.74500000e+02	1.56036357e-01
5.75500000e+02	1.55800352e-01
5.76500000e+02	1.55573532e-01
5.77500000e+02	1.55355544e-01
5.78500000e+02	1.55146045e-01
5.79500000e+02	1.54944707e-01
5.80500000e+02	1.54751215e-01
5.81500000e+02	1.54565265e-01
5.82500000e+02	1.54386564e-01
5.83500000e+02	1.54214832e-01
5.84500000e+02	1.54049799e-01
5.85500000e+02	1.53891205e-01
5.86500000e+02	1.53738800e-01
5.87500000e+02	1.53592344e-01
5.88500000e+02	1.53451606e-01
5.89500000e+02	1.53316364e-01
5.90500000e+02	1.53186405e-01
5.91500000e+02	1.53061523e-01
5.92500000e+02	1.52941521e-01
5.93500000e+02	1.52826209e-01
5.94500000e+02	1.52715405e-01
5.95500000e+02	1.52608934e-01
5.96500000e+02	1.52506627e-01
5.97500000e+02	1.52408321e-01
5.98500000e+02	1.52313861e-01
5.99500000e+02	1.52223098e-01
6.00500000e+02	1.52135887e-01
6.01500000e+02	1.52052089e-01
6.02500000e+02	1.51971573e-01
6.03500000e+02	1.51894209e-01
6.04500000e+02	1.51819876e-01
6.05500000e+02	1.51748454e-01
6.06500000e+02	1.51679830e-01
6.07500000e+02	1.51613895e-01
6.08500000e+02	1.51550544e-01
6.09500000e+02	1.51489677e-01
6.10500000e+02	1.51431195e-01
6.11500000e+02	1.51375007e-01
6.12500000e+02	1.51321022e-01
6.13500000e+02	1.51269154e-01
6.14500000e+02	1.51219321e-01
6.15500000e+02	1.51171442e-01
6.16500000e+02	1.51125442e-01
6.17500000e+02	1.51081248e-01
6.18500000e+02	1.51038787e-01
6.19500000e+02	1.50997994e-01
6.20500000e+02	1.50958801e-01
6.21500000e+02	1.50921147e-01
6.22500000e+02	1.50884971e-01
6.23500000e+02	1.50850216e-01
6.24500000e+02	1.50816826e-01
6.25500000e+02	1.50784747e-01
6.26500000e+02	1.50753928e-01
6.27500000e+02	1.50724319e-01
6.28500000e+02	1.50695873e-01
6.29500000e+02	1.50668545e-01
6.30500000e+02	1.50642290e-01
6.31500000e+02	1.50617067e-01
6.32500000e+02	1.50592835e-01
6.33500000e+02	1.50569554e-01
6.34500000e+02	1.50547189e-01
6.35500000e+02	1.50525702e-01
6.36500000e+02	1.50505060e-01
6.37500000e+02	1.50485228e-01
6.38500000e+02	1.50466176e-01
6.39500000e+02	1.50447872e-01
6.40500000e+02	1.50430288e-01
6.41500000e+02	1.50413395e-01
6.42500000e+02	1.50397165e-01
6.43500000e+02	1.50381573e-01
6.44500000e+02	1.50366594e-01
6.45500000e+02	1.50352203e-01
6.46500000e+02	1.50338378e-01
6.47500000e+02	1.50325096e-01
6.48500000e+02	1.50312336e-01
6.49500000e+02	1.50300077e-01
6.50500000e+02	1.50288299e-01
6.51500000e+02	1.50276984e-01
6.52500000e+02	1.50266114e-01
6.53500000e+02	1.50255671e-01
6.54500000e+02	1.50245638e-01
6.55500000e+02	1.50235999e-01
6.56500000e+02	1.50226738e-01
6.57500000e+02	1.50217842e-01
6.58500000e+02	1.50209294e-01
6.59500000e+02	1.50201083e-01
6.60500000e+02	1.50193193e-01
