# Profil de Te au temps 1.100000000000014e-11 
# simu : /Volumes/MERCURE/JOBS/Zeq2_tanh_50mic_3p5e21_B0_20ps/GNU/Te@y-c.set
# col 0 : abscisse (um)
# col 1 : Te (keV)
5.00000000e-01	9.99987226e-01
1.50000000e+00	9.99987213e-01
2.50000000e+00	9.99987209e-01
3.50000000e+00	9.99987184e-01
4.50000000e+00	9.99987153e-01
5.50000000e+00	9.99987115e-01
6.50000000e+00	9.99987072e-01
7.50000000e+00	9.99987022e-01
8.50000000e+00	9.99986966e-01
9.50000000e+00	9.99986903e-01
1.05000000e+01	9.99986834e-01
1.15000000e+01	9.99986759e-01
1.25000000e+01	9.99986676e-01
1.35000000e+01	9.99986587e-01
1.45000000e+01	9.99986491e-01
1.55000000e+01	9.99986388e-01
1.65000000e+01	9.99986278e-01
1.75000000e+01	9.99986162e-01
1.85000000e+01	9.99986038e-01
1.95000000e+01	9.99985907e-01
2.05000000e+01	9.99985769e-01
2.15000000e+01	9.99985624e-01
2.25000000e+01	9.99985471e-01
2.35000000e+01	9.99985311e-01
2.45000000e+01	9.99985144e-01
2.55000000e+01	9.99984969e-01
2.65000000e+01	9.99984786e-01
2.75000000e+01	9.99984596e-01
2.85000000e+01	9.99984398e-01
2.95000000e+01	9.99984192e-01
3.05000000e+01	9.99983979e-01
3.15000000e+01	9.99983757e-01
3.25000000e+01	9.99983527e-01
3.35000000e+01	9.99983289e-01
3.45000000e+01	9.99983042e-01
3.55000000e+01	9.99982787e-01
3.65000000e+01	9.99982524e-01
3.75000000e+01	9.99982251e-01
3.85000000e+01	9.99981970e-01
3.95000000e+01	9.99981680e-01
4.05000000e+01	9.99981381e-01
4.15000000e+01	9.99981073e-01
4.25000000e+01	9.99980755e-01
4.35000000e+01	9.99980428e-01
4.45000000e+01	9.99980091e-01
4.55000000e+01	9.99979744e-01
4.65000000e+01	9.99979387e-01
4.75000000e+01	9.99979020e-01
4.85000000e+01	9.99978643e-01
4.95000000e+01	9.99978255e-01
5.05000000e+01	9.99977857e-01
5.15000000e+01	9.99977447e-01
5.25000000e+01	9.99977027e-01
5.35000000e+01	9.99976595e-01
5.45000000e+01	9.99976151e-01
5.55000000e+01	9.99975696e-01
5.65000000e+01	9.99975229e-01
5.75000000e+01	9.99974750e-01
5.85000000e+01	9.99974258e-01
5.95000000e+01	9.99973754e-01
6.05000000e+01	9.99973236e-01
6.15000000e+01	9.99972706e-01
6.25000000e+01	9.99972162e-01
6.35000000e+01	9.99971604e-01
6.45000000e+01	9.99971033e-01
6.55000000e+01	9.99970447e-01
6.65000000e+01	9.99969846e-01
6.75000000e+01	9.99969231e-01
6.85000000e+01	9.99968600e-01
6.95000000e+01	9.99967954e-01
7.05000000e+01	9.99967292e-01
7.15000000e+01	9.99966613e-01
7.25000000e+01	9.99965918e-01
7.35000000e+01	9.99965207e-01
7.45000000e+01	9.99964477e-01
7.55000000e+01	9.99963731e-01
7.65000000e+01	9.99962966e-01
7.75000000e+01	9.99962182e-01
7.85000000e+01	9.99961380e-01
7.95000000e+01	9.99960558e-01
8.05000000e+01	9.99959717e-01
8.15000000e+01	9.99958855e-01
8.25000000e+01	9.99957972e-01
8.35000000e+01	9.99957069e-01
8.45000000e+01	9.99956143e-01
8.55000000e+01	9.99955196e-01
8.65000000e+01	9.99954226e-01
8.75000000e+01	9.99953232e-01
8.85000000e+01	9.99952215e-01
8.95000000e+01	9.99951174e-01
9.05000000e+01	9.99950107e-01
9.15000000e+01	9.99949015e-01
9.25000000e+01	9.99947897e-01
9.35000000e+01	9.99946752e-01
9.45000000e+01	9.99945580e-01
9.55000000e+01	9.99944379e-01
9.65000000e+01	9.99943150e-01
9.75000000e+01	9.99941892e-01
9.85000000e+01	9.99940603e-01
9.95000000e+01	9.99939283e-01
1.00500000e+02	9.99937932e-01
1.01500000e+02	9.99936548e-01
1.02500000e+02	9.99935131e-01
1.03500000e+02	9.99933680e-01
1.04500000e+02	9.99932194e-01
1.05500000e+02	9.99930673e-01
1.06500000e+02	9.99929114e-01
1.07500000e+02	9.99927518e-01
1.08500000e+02	9.99925883e-01
1.09500000e+02	9.99924209e-01
1.10500000e+02	9.99922495e-01
1.11500000e+02	9.99920738e-01
1.12500000e+02	9.99918940e-01
1.13500000e+02	9.99917097e-01
1.14500000e+02	9.99915210e-01
1.15500000e+02	9.99913277e-01
1.16500000e+02	9.99911297e-01
1.17500000e+02	9.99909268e-01
1.18500000e+02	9.99907190e-01
1.19500000e+02	9.99905061e-01
1.20500000e+02	9.99902880e-01
1.21500000e+02	9.99900646e-01
1.22500000e+02	9.99898356e-01
1.23500000e+02	9.99896011e-01
1.24500000e+02	9.99893607e-01
1.25500000e+02	9.99891145e-01
1.26500000e+02	9.99888621e-01
1.27500000e+02	9.99886035e-01
1.28500000e+02	9.99883385e-01
1.29500000e+02	9.99880670e-01
1.30500000e+02	9.99877887e-01
1.31500000e+02	9.99875035e-01
1.32500000e+02	9.99872112e-01
1.33500000e+02	9.99869115e-01
1.34500000e+02	9.99866044e-01
1.35500000e+02	9.99862897e-01
1.36500000e+02	9.99859670e-01
1.37500000e+02	9.99856363e-01
1.38500000e+02	9.99852972e-01
1.39500000e+02	9.99849496e-01
1.40500000e+02	9.99845932e-01
1.41500000e+02	9.99842279e-01
1.42500000e+02	9.99838533e-01
1.43500000e+02	9.99834692e-01
1.44500000e+02	9.99830754e-01
1.45500000e+02	9.99826716e-01
1.46500000e+02	9.99822575e-01
1.47500000e+02	9.99818328e-01
1.48500000e+02	9.99813974e-01
1.49500000e+02	9.99809508e-01
1.50500000e+02	9.99804927e-01
1.51500000e+02	9.99800230e-01
1.52500000e+02	9.99795411e-01
1.53500000e+02	9.99790469e-01
1.54500000e+02	9.99785399e-01
1.55500000e+02	9.99780199e-01
1.56500000e+02	9.99774865e-01
1.57500000e+02	9.99769392e-01
1.58500000e+02	9.99763778e-01
1.59500000e+02	9.99758017e-01
1.60500000e+02	9.99752108e-01
1.61500000e+02	9.99746044e-01
1.62500000e+02	9.99739822e-01
1.63500000e+02	9.99733438e-01
1.64500000e+02	9.99726887e-01
1.65500000e+02	9.99720164e-01
1.66500000e+02	9.99713266e-01
1.67500000e+02	9.99706185e-01
1.68500000e+02	9.99698919e-01
1.69500000e+02	9.99691461e-01
1.70500000e+02	9.99683807e-01
1.71500000e+02	9.99675950e-01
1.72500000e+02	9.99667885e-01
1.73500000e+02	9.99659607e-01
1.74500000e+02	9.99651109e-01
1.75500000e+02	9.99642385e-01
1.76500000e+02	9.99633430e-01
1.77500000e+02	9.99624235e-01
1.78500000e+02	9.99614795e-01
1.79500000e+02	9.99605103e-01
1.80500000e+02	9.99595151e-01
1.81500000e+02	9.99584933e-01
1.82500000e+02	9.99574441e-01
1.83500000e+02	9.99563666e-01
1.84500000e+02	9.99552602e-01
1.85500000e+02	9.99541240e-01
1.86500000e+02	9.99529571e-01
1.87500000e+02	9.99517587e-01
1.88500000e+02	9.99505279e-01
1.89500000e+02	9.99492637e-01
1.90500000e+02	9.99479652e-01
1.91500000e+02	9.99466315e-01
1.92500000e+02	9.99452616e-01
1.93500000e+02	9.99438543e-01
1.94500000e+02	9.99424087e-01
1.95500000e+02	9.99409236e-01
1.96500000e+02	9.99393980e-01
1.97500000e+02	9.99378306e-01
1.98500000e+02	9.99362203e-01
1.99500000e+02	9.99345658e-01
2.00500000e+02	9.99328660e-01
2.01500000e+02	9.99311194e-01
2.02500000e+02	9.99293247e-01
2.03500000e+02	9.99274806e-01
2.04500000e+02	9.99255857e-01
2.05500000e+02	9.99236384e-01
2.06500000e+02	9.99216373e-01
2.07500000e+02	9.99195809e-01
2.08500000e+02	9.99174675e-01
2.09500000e+02	9.99152955e-01
2.10500000e+02	9.99130632e-01
2.11500000e+02	9.99107689e-01
2.12500000e+02	9.99084109e-01
2.13500000e+02	9.99059871e-01
2.14500000e+02	9.99034959e-01
2.15500000e+02	9.99009352e-01
2.16500000e+02	9.98983029e-01
2.17500000e+02	9.98955972e-01
2.18500000e+02	9.98928158e-01
2.19500000e+02	9.98899565e-01
2.20500000e+02	9.98870171e-01
2.21500000e+02	9.98839953e-01
2.22500000e+02	9.98808888e-01
2.23500000e+02	9.98776950e-01
2.24500000e+02	9.98744114e-01
2.25500000e+02	9.98710354e-01
2.26500000e+02	9.98675645e-01
2.27500000e+02	9.98639957e-01
2.28500000e+02	9.98603264e-01
2.29500000e+02	9.98565535e-01
2.30500000e+02	9.98526742e-01
2.31500000e+02	9.98486852e-01
2.32500000e+02	9.98445835e-01
2.33500000e+02	9.98403658e-01
2.34500000e+02	9.98360288e-01
2.35500000e+02	9.98315689e-01
2.36500000e+02	9.98269826e-01
2.37500000e+02	9.98222664e-01
2.38500000e+02	9.98174164e-01
2.39500000e+02	9.98124287e-01
2.40500000e+02	9.98072995e-01
2.41500000e+02	9.98020245e-01
2.42500000e+02	9.97965996e-01
2.43500000e+02	9.97910206e-01
2.44500000e+02	9.97852828e-01
2.45500000e+02	9.97793818e-01
2.46500000e+02	9.97733129e-01
2.47500000e+02	9.97670711e-01
2.48500000e+02	9.97606516e-01
2.49500000e+02	9.97540493e-01
2.50500000e+02	9.97472588e-01
2.51500000e+02	9.97402747e-01
2.52500000e+02	9.97330915e-01
2.53500000e+02	9.97257036e-01
2.54500000e+02	9.97181049e-01
2.55500000e+02	9.97102894e-01
2.56500000e+02	9.97022511e-01
2.57500000e+02	9.96939834e-01
2.58500000e+02	9.96854798e-01
2.59500000e+02	9.96767335e-01
2.60500000e+02	9.96677377e-01
2.61500000e+02	9.96584853e-01
2.62500000e+02	9.96489688e-01
2.63500000e+02	9.96391808e-01
2.64500000e+02	9.96291135e-01
2.65500000e+02	9.96187591e-01
2.66500000e+02	9.96081093e-01
2.67500000e+02	9.95971558e-01
2.68500000e+02	9.95858900e-01
2.69500000e+02	9.95743030e-01
2.70500000e+02	9.95623858e-01
2.71500000e+02	9.95501290e-01
2.72500000e+02	9.95375231e-01
2.73500000e+02	9.95245582e-01
2.74500000e+02	9.95112243e-01
2.75500000e+02	9.94975110e-01
2.76500000e+02	9.94834076e-01
2.77500000e+02	9.94689032e-01
2.78500000e+02	9.94539867e-01
2.79500000e+02	9.94386465e-01
2.80500000e+02	9.94228708e-01
2.81500000e+02	9.94066475e-01
2.82500000e+02	9.93899641e-01
2.83500000e+02	9.93728080e-01
2.84500000e+02	9.93551660e-01
2.85500000e+02	9.93370247e-01
2.86500000e+02	9.93183704e-01
2.87500000e+02	9.92991889e-01
2.88500000e+02	9.92794657e-01
2.89500000e+02	9.92591861e-01
2.90500000e+02	9.92383347e-01
2.91500000e+02	9.92168960e-01
2.92500000e+02	9.91948540e-01
2.93500000e+02	9.91721923e-01
2.94500000e+02	9.91488941e-01
2.95500000e+02	9.91249421e-01
2.96500000e+02	9.91003188e-01
2.97500000e+02	9.90750060e-01
2.98500000e+02	9.90489852e-01
2.99500000e+02	9.90222376e-01
3.00500000e+02	9.89947435e-01
3.01500000e+02	9.89664832e-01
3.02500000e+02	9.89374363e-01
3.03500000e+02	9.89075820e-01
3.04500000e+02	9.88768988e-01
3.05500000e+02	9.88453650e-01
3.06500000e+02	9.88129582e-01
3.07500000e+02	9.87796555e-01
3.08500000e+02	9.87454335e-01
3.09500000e+02	9.87102683e-01
3.10500000e+02	9.86741354e-01
3.11500000e+02	9.86370098e-01
3.12500000e+02	9.85988658e-01
3.13500000e+02	9.85596772e-01
3.14500000e+02	9.85194174e-01
3.15500000e+02	9.84780589e-01
3.16500000e+02	9.84355738e-01
3.17500000e+02	9.83919335e-01
3.18500000e+02	9.83471089e-01
3.19500000e+02	9.83010701e-01
3.20500000e+02	9.82537868e-01
3.21500000e+02	9.82052278e-01
3.22500000e+02	9.81553614e-01
3.23500000e+02	9.81041552e-01
3.24500000e+02	9.80515761e-01
3.25500000e+02	9.79975905e-01
3.26500000e+02	9.79421639e-01
3.27500000e+02	9.78852611e-01
3.28500000e+02	9.78268464e-01
3.29500000e+02	9.77668833e-01
3.30500000e+02	9.77053345e-01
3.31500000e+02	9.76421621e-01
3.32500000e+02	9.75773274e-01
3.33500000e+02	9.75107910e-01
3.34500000e+02	9.74425128e-01
3.35500000e+02	9.73724518e-01
3.36500000e+02	9.73005664e-01
3.37500000e+02	9.72268142e-01
3.38500000e+02	9.71511521e-01
3.39500000e+02	9.70735361e-01
3.40500000e+02	9.69939215e-01
3.41500000e+02	9.69122628e-01
3.42500000e+02	9.68285138e-01
3.43500000e+02	9.67426274e-01
3.44500000e+02	9.66545558e-01
3.45500000e+02	9.65642504e-01
3.46500000e+02	9.64716619e-01
3.47500000e+02	9.63767399e-01
3.48500000e+02	9.62794335e-01
3.49500000e+02	9.61796910e-01
3.50500000e+02	9.60774598e-01
3.51500000e+02	9.59726864e-01
3.52500000e+02	9.58653168e-01
3.53500000e+02	9.57552960e-01
3.54500000e+02	9.56425683e-01
3.55500000e+02	9.55270771e-01
3.56500000e+02	9.54087651e-01
3.57500000e+02	9.52875743e-01
3.58500000e+02	9.51634458e-01
3.59500000e+02	9.50363199e-01
3.60500000e+02	9.49061363e-01
3.61500000e+02	9.47728339e-01
3.62500000e+02	9.46363506e-01
3.63500000e+02	9.44966239e-01
3.64500000e+02	9.43535904e-01
3.65500000e+02	9.42071860e-01
3.66500000e+02	9.40573459e-01
3.67500000e+02	9.39040045e-01
3.68500000e+02	9.37470957e-01
3.69500000e+02	9.35865526e-01
3.70500000e+02	9.34223076e-01
3.71500000e+02	9.32542924e-01
3.72500000e+02	9.30824384e-01
3.73500000e+02	9.29066759e-01
3.74500000e+02	9.27269350e-01
3.75500000e+02	9.25431450e-01
3.76500000e+02	9.23552346e-01
3.77500000e+02	9.21631321e-01
3.78500000e+02	9.19667653e-01
3.79500000e+02	9.17660614e-01
3.80500000e+02	9.15609470e-01
3.81500000e+02	9.13513484e-01
3.82500000e+02	9.11371916e-01
3.83500000e+02	9.09184019e-01
3.84500000e+02	9.06949045e-01
3.85500000e+02	9.04666240e-01
3.86500000e+02	9.02334848e-01
3.87500000e+02	8.99954112e-01
3.88500000e+02	8.97523268e-01
3.89500000e+02	8.95041555e-01
3.90500000e+02	8.92508207e-01
3.91500000e+02	8.89922456e-01
3.92500000e+02	8.87283535e-01
3.93500000e+02	8.84590677e-01
3.94500000e+02	8.81843111e-01
3.95500000e+02	8.79040069e-01
3.96500000e+02	8.76180784e-01
3.97500000e+02	8.73264489e-01
3.98500000e+02	8.70290419e-01
3.99500000e+02	8.67257810e-01
4.00500000e+02	8.64165902e-01
4.01500000e+02	8.61013938e-01
4.02500000e+02	8.57801164e-01
4.03500000e+02	8.54526832e-01
4.04500000e+02	8.51190197e-01
4.05500000e+02	8.47790521e-01
4.06500000e+02	8.44327071e-01
4.07500000e+02	8.40799123e-01
4.08500000e+02	8.37205959e-01
4.09500000e+02	8.33546870e-01
4.10500000e+02	8.29821158e-01
4.11500000e+02	8.26028131e-01
4.12500000e+02	8.22167113e-01
4.13500000e+02	8.18237436e-01
4.14500000e+02	8.14238448e-01
4.15500000e+02	8.10169508e-01
4.16500000e+02	8.06029993e-01
4.17500000e+02	8.01819293e-01
4.18500000e+02	7.97536817e-01
4.19500000e+02	7.93181993e-01
4.20500000e+02	7.88754267e-01
4.21500000e+02	7.84253106e-01
4.22500000e+02	7.79678002e-01
4.23500000e+02	7.75028467e-01
4.24500000e+02	7.70304042e-01
4.25500000e+02	7.65504294e-01
4.26500000e+02	7.60628816e-01
4.27500000e+02	7.55677236e-01
4.28500000e+02	7.50649211e-01
4.29500000e+02	7.45544435e-01
4.30500000e+02	7.40362636e-01
4.31500000e+02	7.35103583e-01
4.32500000e+02	7.29767085e-01
4.33500000e+02	7.24352995e-01
4.34500000e+02	7.18861212e-01
4.35500000e+02	7.13291685e-01
4.36500000e+02	7.07644412e-01
4.37500000e+02	7.01919449e-01
4.38500000e+02	6.96116910e-01
4.39500000e+02	6.90236968e-01
4.40500000e+02	6.84279864e-01
4.41500000e+02	6.78245907e-01
4.42500000e+02	6.72135479e-01
4.43500000e+02	6.65949038e-01
4.44500000e+02	6.59687127e-01
4.45500000e+02	6.53350372e-01
4.46500000e+02	6.46939492e-01
4.47500000e+02	6.40455302e-01
4.48500000e+02	6.33898719e-01
4.49500000e+02	6.27270769e-01
4.50500000e+02	6.20572588e-01
4.51500000e+02	6.13805436e-01
4.52500000e+02	6.06970697e-01
4.53500000e+02	6.00069889e-01
4.54500000e+02	5.93104669e-01
4.55500000e+02	5.86076843e-01
4.56500000e+02	5.78988371e-01
4.57500000e+02	5.71841377e-01
4.58500000e+02	5.64638152e-01
4.59500000e+02	5.57381171e-01
4.60500000e+02	5.50073093e-01
4.61500000e+02	5.42716772e-01
4.62500000e+02	5.35315265e-01
4.63500000e+02	5.27871844e-01
4.64500000e+02	5.20389996e-01
4.65500000e+02	5.12873440e-01
4.66500000e+02	5.05326124e-01
4.67500000e+02	4.97752243e-01
4.68500000e+02	4.90156236e-01
4.69500000e+02	4.82542794e-01
4.70500000e+02	4.74916865e-01
4.71500000e+02	4.67283657e-01
4.72500000e+02	4.59648636e-01
4.73500000e+02	4.52017527e-01
4.74500000e+02	4.44396311e-01
4.75500000e+02	4.36791217e-01
4.76500000e+02	4.29208718e-01
4.77500000e+02	4.21655515e-01
4.78500000e+02	4.14138522e-01
4.79500000e+02	4.06664849e-01
4.80500000e+02	3.99241778e-01
4.81500000e+02	3.91876735e-01
4.82500000e+02	3.84577257e-01
4.83500000e+02	3.77350958e-01
4.84500000e+02	3.70205485e-01
4.85500000e+02	3.63148473e-01
4.86500000e+02	3.56187497e-01
4.87500000e+02	3.49330013e-01
4.88500000e+02	3.42583308e-01
4.89500000e+02	3.35954435e-01
4.90500000e+02	3.29450157e-01
4.91500000e+02	3.23076881e-01
4.92500000e+02	3.16840600e-01
4.93500000e+02	3.10746839e-01
4.94500000e+02	3.04800595e-01
4.95500000e+02	2.99006291e-01
4.96500000e+02	2.93367736e-01
4.97500000e+02	2.87888087e-01
4.98500000e+02	2.82569828e-01
4.99500000e+02	2.77414752e-01
5.00500000e+02	2.72423957e-01
5.01500000e+02	2.67597851e-01
5.02500000e+02	2.62936170e-01
5.03500000e+02	2.58438004e-01
5.04500000e+02	2.54101832e-01
5.05500000e+02	2.49925564e-01
5.06500000e+02	2.45906592e-01
5.07500000e+02	2.42041847e-01
5.08500000e+02	2.38327853e-01
5.09500000e+02	2.34760790e-01
5.10500000e+02	2.31336556e-01
5.11500000e+02	2.28050821e-01
5.12500000e+02	2.24899089e-01
5.13500000e+02	2.21876749e-01
5.14500000e+02	2.18979124e-01
5.15500000e+02	2.16201515e-01
5.16500000e+02	2.13539241e-01
5.17500000e+02	2.10987671e-01
5.18500000e+02	2.08542256e-01
5.19500000e+02	2.06198546e-01
5.20500000e+02	2.03952216e-01
5.21500000e+02	2.01799075e-01
5.22500000e+02	1.99735076e-01
5.23500000e+02	1.97756327e-01
5.24500000e+02	1.95859092e-01
5.25500000e+02	1.94039792e-01
5.26500000e+02	1.92295007e-01
5.27500000e+02	1.90621469e-01
5.28500000e+02	1.89016064e-01
5.29500000e+02	1.87475823e-01
5.30500000e+02	1.85997919e-01
5.31500000e+02	1.84579660e-01
5.32500000e+02	1.83218485e-01
5.33500000e+02	1.81911954e-01
5.34500000e+02	1.80657745e-01
5.35500000e+02	1.79453648e-01
5.36500000e+02	1.78297559e-01
5.37500000e+02	1.77187470e-01
5.38500000e+02	1.76121469e-01
5.39500000e+02	1.75097735e-01
5.40500000e+02	1.74114526e-01
5.41500000e+02	1.73170183e-01
5.42500000e+02	1.72263122e-01
5.43500000e+02	1.71391826e-01
5.44500000e+02	1.70554850e-01
5.45500000e+02	1.69750809e-01
5.46500000e+02	1.68978380e-01
5.47500000e+02	1.68236295e-01
5.48500000e+02	1.67523342e-01
5.49500000e+02	1.66838360e-01
5.50500000e+02	1.66180236e-01
5.51500000e+02	1.65547903e-01
5.52500000e+02	1.64940341e-01
5.53500000e+02	1.64356570e-01
5.54500000e+02	1.63795650e-01
5.55500000e+02	1.63256680e-01
5.56500000e+02	1.62738795e-01
5.57500000e+02	1.62241166e-01
5.58500000e+02	1.61762997e-01
5.59500000e+02	1.61303524e-01
5.60500000e+02	1.60862013e-01
5.61500000e+02	1.60437759e-01
5.62500000e+02	1.60030087e-01
5.63500000e+02	1.59638346e-01
5.64500000e+02	1.59261914e-01
5.65500000e+02	1.58900191e-01
5.66500000e+02	1.58552602e-01
5.67500000e+02	1.58218593e-01
5.68500000e+02	1.57897635e-01
5.69500000e+02	1.57589216e-01
5.70500000e+02	1.57292847e-01
5.71500000e+02	1.57008057e-01
5.72500000e+02	1.56734393e-01
5.73500000e+02	1.56471422e-01
5.74500000e+02	1.56218724e-01
5.75500000e+02	1.55975899e-01
5.76500000e+02	1.55742561e-01
5.77500000e+02	1.55518340e-01
5.78500000e+02	1.55302879e-01
5.79500000e+02	1.55095836e-01
5.80500000e+02	1.54896883e-01
5.81500000e+02	1.54705704e-01
5.82500000e+02	1.54521994e-01
5.83500000e+02	1.54345462e-01
5.84500000e+02	1.54175829e-01
5.85500000e+02	1.54012823e-01
5.86500000e+02	1.53856187e-01
5.87500000e+02	1.53705671e-01
5.88500000e+02	1.53561037e-01
5.89500000e+02	1.53422054e-01
5.90500000e+02	1.53288502e-01
5.91500000e+02	1.53160169e-01
5.92500000e+02	1.53036851e-01
5.93500000e+02	1.52918351e-01
5.94500000e+02	1.52804481e-01
5.95500000e+02	1.52695062e-01
5.96500000e+02	1.52589917e-01
5.97500000e+02	1.52488882e-01
5.98500000e+02	1.52391794e-01
5.99500000e+02	1.52298500e-01
6.00500000e+02	1.52208851e-01
6.01500000e+02	1.52122705e-01
6.02500000e+02	1.52039925e-01
6.03500000e+02	1.51960380e-01
6.04500000e+02	1.51883942e-01
6.05500000e+02	1.51810491e-01
6.06500000e+02	1.51739910e-01
6.07500000e+02	1.51672086e-01
6.08500000e+02	1.51606912e-01
6.09500000e+02	1.51544284e-01
6.10500000e+02	1.51484103e-01
6.11500000e+02	1.51426273e-01
6.12500000e+02	1.51370702e-01
6.13500000e+02	1.51317302e-01
6.14500000e+02	1.51265988e-01
6.15500000e+02	1.51216678e-01
6.16500000e+02	1.51169294e-01
6.17500000e+02	1.51123761e-01
6.18500000e+02	1.51080006e-01
6.19500000e+02	1.51037961e-01
6.20500000e+02	1.50997557e-01
6.21500000e+02	1.50958731e-01
6.22500000e+02	1.50921422e-01
6.23500000e+02	1.50885570e-01
6.24500000e+02	1.50851117e-01
6.25500000e+02	1.50818010e-01
6.26500000e+02	1.50786196e-01
6.27500000e+02	1.50755624e-01
6.28500000e+02	1.50726246e-01
6.29500000e+02	1.50698015e-01
6.30500000e+02	1.50670886e-01
6.31500000e+02	1.50644817e-01
6.32500000e+02	1.50619765e-01
6.33500000e+02	1.50595691e-01
6.34500000e+02	1.50572557e-01
6.35500000e+02	1.50550327e-01
6.36500000e+02	1.50528964e-01
6.37500000e+02	1.50508435e-01
6.38500000e+02	1.50488708e-01
6.39500000e+02	1.50469751e-01
6.40500000e+02	1.50451534e-01
6.41500000e+02	1.50434028e-01
6.42500000e+02	1.50417206e-01
6.43500000e+02	1.50401040e-01
6.44500000e+02	1.50385506e-01
6.45500000e+02	1.50370578e-01
6.46500000e+02	1.50356233e-01
6.47500000e+02	1.50342448e-01
6.48500000e+02	1.50329202e-01
6.49500000e+02	1.50316473e-01
6.50500000e+02	1.50304241e-01
6.51500000e+02	1.50292487e-01
6.52500000e+02	1.50281192e-01
6.53500000e+02	1.50270338e-01
6.54500000e+02	1.50259908e-01
6.55500000e+02	1.50249886e-01
6.56500000e+02	1.50240256e-01
6.57500000e+02	1.50231002e-01
6.58500000e+02	1.50222110e-01
6.59500000e+02	1.50213566e-01
6.60500000e+02	1.50205356e-01
