# Profil de Te au temps 5.000000000000045e-12 
# simu : /Volumes/MERCURE/JOBS/Zeq2_tanh_50mic_3p5e21_B0_20ps/GNU/Te@y-c.set
# col 0 : abscisse (um)
# col 1 : Te (keV)
5.00000000e-01	9.99999937e-01
1.50000000e+00	9.99999930e-01
2.50000000e+00	9.99999938e-01
3.50000000e+00	9.99999934e-01
4.50000000e+00	9.99999928e-01
5.50000000e+00	9.99999923e-01
6.50000000e+00	9.99999919e-01
7.50000000e+00	9.99999915e-01
8.50000000e+00	9.99999912e-01
9.50000000e+00	9.99999908e-01
1.05000000e+01	9.99999905e-01
1.15000000e+01	9.99999901e-01
1.25000000e+01	9.99999898e-01
1.35000000e+01	9.99999895e-01
1.45000000e+01	9.99999891e-01
1.55000000e+01	9.99999887e-01
1.65000000e+01	9.99999884e-01
1.75000000e+01	9.99999880e-01
1.85000000e+01	9.99999876e-01
1.95000000e+01	9.99999871e-01
2.05000000e+01	9.99999867e-01
2.15000000e+01	9.99999863e-01
2.25000000e+01	9.99999858e-01
2.35000000e+01	9.99999853e-01
2.45000000e+01	9.99999848e-01
2.55000000e+01	9.99999842e-01
2.65000000e+01	9.99999837e-01
2.75000000e+01	9.99999831e-01
2.85000000e+01	9.99999825e-01
2.95000000e+01	9.99999818e-01
3.05000000e+01	9.99999812e-01
3.15000000e+01	9.99999805e-01
3.25000000e+01	9.99999798e-01
3.35000000e+01	9.99999790e-01
3.45000000e+01	9.99999782e-01
3.55000000e+01	9.99999774e-01
3.65000000e+01	9.99999765e-01
3.75000000e+01	9.99999756e-01
3.85000000e+01	9.99999747e-01
3.95000000e+01	9.99999737e-01
4.05000000e+01	9.99999727e-01
4.15000000e+01	9.99999716e-01
4.25000000e+01	9.99999705e-01
4.35000000e+01	9.99999694e-01
4.45000000e+01	9.99999682e-01
4.55000000e+01	9.99999669e-01
4.65000000e+01	9.99999656e-01
4.75000000e+01	9.99999643e-01
4.85000000e+01	9.99999628e-01
4.95000000e+01	9.99999614e-01
5.05000000e+01	9.99999598e-01
5.15000000e+01	9.99999582e-01
5.25000000e+01	9.99999566e-01
5.35000000e+01	9.99999548e-01
5.45000000e+01	9.99999530e-01
5.55000000e+01	9.99999511e-01
5.65000000e+01	9.99999492e-01
5.75000000e+01	9.99999471e-01
5.85000000e+01	9.99999450e-01
5.95000000e+01	9.99999428e-01
6.05000000e+01	9.99999405e-01
6.15000000e+01	9.99999381e-01
6.25000000e+01	9.99999356e-01
6.35000000e+01	9.99999330e-01
6.45000000e+01	9.99999302e-01
6.55000000e+01	9.99999274e-01
6.65000000e+01	9.99999245e-01
6.75000000e+01	9.99999214e-01
6.85000000e+01	9.99999182e-01
6.95000000e+01	9.99999149e-01
7.05000000e+01	9.99999115e-01
7.15000000e+01	9.99999079e-01
7.25000000e+01	9.99999041e-01
7.35000000e+01	9.99999002e-01
7.45000000e+01	9.99998962e-01
7.55000000e+01	9.99998920e-01
7.65000000e+01	9.99998876e-01
7.75000000e+01	9.99998830e-01
7.85000000e+01	9.99998783e-01
7.95000000e+01	9.99998733e-01
8.05000000e+01	9.99998682e-01
8.15000000e+01	9.99998628e-01
8.25000000e+01	9.99998572e-01
8.35000000e+01	9.99998514e-01
8.45000000e+01	9.99998454e-01
8.55000000e+01	9.99998391e-01
8.65000000e+01	9.99998325e-01
8.75000000e+01	9.99998257e-01
8.85000000e+01	9.99998186e-01
8.95000000e+01	9.99998112e-01
9.05000000e+01	9.99998036e-01
9.15000000e+01	9.99997956e-01
9.25000000e+01	9.99997872e-01
9.35000000e+01	9.99997786e-01
9.45000000e+01	9.99997696e-01
9.55000000e+01	9.99997602e-01
9.65000000e+01	9.99997504e-01
9.75000000e+01	9.99997403e-01
9.85000000e+01	9.99997297e-01
9.95000000e+01	9.99997187e-01
1.00500000e+02	9.99997073e-01
1.01500000e+02	9.99996954e-01
1.02500000e+02	9.99996830e-01
1.03500000e+02	9.99996701e-01
1.04500000e+02	9.99996567e-01
1.05500000e+02	9.99996427e-01
1.06500000e+02	9.99996282e-01
1.07500000e+02	9.99996130e-01
1.08500000e+02	9.99995973e-01
1.09500000e+02	9.99995809e-01
1.10500000e+02	9.99995639e-01
1.11500000e+02	9.99995462e-01
1.12500000e+02	9.99995277e-01
1.13500000e+02	9.99995085e-01
1.14500000e+02	9.99994886e-01
1.15500000e+02	9.99994678e-01
1.16500000e+02	9.99994462e-01
1.17500000e+02	9.99994237e-01
1.18500000e+02	9.99994003e-01
1.19500000e+02	9.99993759e-01
1.20500000e+02	9.99993506e-01
1.21500000e+02	9.99993243e-01
1.22500000e+02	9.99992968e-01
1.23500000e+02	9.99992683e-01
1.24500000e+02	9.99992386e-01
1.25500000e+02	9.99992078e-01
1.26500000e+02	9.99991757e-01
1.27500000e+02	9.99991423e-01
1.28500000e+02	9.99991075e-01
1.29500000e+02	9.99990713e-01
1.30500000e+02	9.99990337e-01
1.31500000e+02	9.99989946e-01
1.32500000e+02	9.99989539e-01
1.33500000e+02	9.99989116e-01
1.34500000e+02	9.99988676e-01
1.35500000e+02	9.99988218e-01
1.36500000e+02	9.99987742e-01
1.37500000e+02	9.99987246e-01
1.38500000e+02	9.99986731e-01
1.39500000e+02	9.99986195e-01
1.40500000e+02	9.99985638e-01
1.41500000e+02	9.99985059e-01
1.42500000e+02	9.99984456e-01
1.43500000e+02	9.99983830e-01
1.44500000e+02	9.99983178e-01
1.45500000e+02	9.99982501e-01
1.46500000e+02	9.99981796e-01
1.47500000e+02	9.99981064e-01
1.48500000e+02	9.99980302e-01
1.49500000e+02	9.99979511e-01
1.50500000e+02	9.99978688e-01
1.51500000e+02	9.99977832e-01
1.52500000e+02	9.99976942e-01
1.53500000e+02	9.99976018e-01
1.54500000e+02	9.99975056e-01
1.55500000e+02	9.99974057e-01
1.56500000e+02	9.99973019e-01
1.57500000e+02	9.99971939e-01
1.58500000e+02	9.99970818e-01
1.59500000e+02	9.99969652e-01
1.60500000e+02	9.99968440e-01
1.61500000e+02	9.99967181e-01
1.62500000e+02	9.99965873e-01
1.63500000e+02	9.99964514e-01
1.64500000e+02	9.99963102e-01
1.65500000e+02	9.99961634e-01
1.66500000e+02	9.99960110e-01
1.67500000e+02	9.99958526e-01
1.68500000e+02	9.99956881e-01
1.69500000e+02	9.99955172e-01
1.70500000e+02	9.99953397e-01
1.71500000e+02	9.99951553e-01
1.72500000e+02	9.99949639e-01
1.73500000e+02	9.99947650e-01
1.74500000e+02	9.99945585e-01
1.75500000e+02	9.99943441e-01
1.76500000e+02	9.99941215e-01
1.77500000e+02	9.99938903e-01
1.78500000e+02	9.99936503e-01
1.79500000e+02	9.99934011e-01
1.80500000e+02	9.99931425e-01
1.81500000e+02	9.99928740e-01
1.82500000e+02	9.99925953e-01
1.83500000e+02	9.99923061e-01
1.84500000e+02	9.99920059e-01
1.85500000e+02	9.99916944e-01
1.86500000e+02	9.99913711e-01
1.87500000e+02	9.99910356e-01
1.88500000e+02	9.99906876e-01
1.89500000e+02	9.99903265e-01
1.90500000e+02	9.99899518e-01
1.91500000e+02	9.99895632e-01
1.92500000e+02	9.99891601e-01
1.93500000e+02	9.99887419e-01
1.94500000e+02	9.99883082e-01
1.95500000e+02	9.99878584e-01
1.96500000e+02	9.99873919e-01
1.97500000e+02	9.99869082e-01
1.98500000e+02	9.99864066e-01
1.99500000e+02	9.99858865e-01
2.00500000e+02	9.99853473e-01
2.01500000e+02	9.99847883e-01
2.02500000e+02	9.99842089e-01
2.03500000e+02	9.99836082e-01
2.04500000e+02	9.99829855e-01
2.05500000e+02	9.99823402e-01
2.06500000e+02	9.99816714e-01
2.07500000e+02	9.99809782e-01
2.08500000e+02	9.99802599e-01
2.09500000e+02	9.99795156e-01
2.10500000e+02	9.99787445e-01
2.11500000e+02	9.99779454e-01
2.12500000e+02	9.99771176e-01
2.13500000e+02	9.99762600e-01
2.14500000e+02	9.99753716e-01
2.15500000e+02	9.99744514e-01
2.16500000e+02	9.99734982e-01
2.17500000e+02	9.99725110e-01
2.18500000e+02	9.99714885e-01
2.19500000e+02	9.99704296e-01
2.20500000e+02	9.99693331e-01
2.21500000e+02	9.99681976e-01
2.22500000e+02	9.99670218e-01
2.23500000e+02	9.99658044e-01
2.24500000e+02	9.99645439e-01
2.25500000e+02	9.99632389e-01
2.26500000e+02	9.99618879e-01
2.27500000e+02	9.99604893e-01
2.28500000e+02	9.99590415e-01
2.29500000e+02	9.99575428e-01
2.30500000e+02	9.99559916e-01
2.31500000e+02	9.99543860e-01
2.32500000e+02	9.99527242e-01
2.33500000e+02	9.99510043e-01
2.34500000e+02	9.99492243e-01
2.35500000e+02	9.99473823e-01
2.36500000e+02	9.99454760e-01
2.37500000e+02	9.99435034e-01
2.38500000e+02	9.99414622e-01
2.39500000e+02	9.99393500e-01
2.40500000e+02	9.99371645e-01
2.41500000e+02	9.99349033e-01
2.42500000e+02	9.99325636e-01
2.43500000e+02	9.99301429e-01
2.44500000e+02	9.99276385e-01
2.45500000e+02	9.99250474e-01
2.46500000e+02	9.99223668e-01
2.47500000e+02	9.99195937e-01
2.48500000e+02	9.99167249e-01
2.49500000e+02	9.99137571e-01
2.50500000e+02	9.99106870e-01
2.51500000e+02	9.99075112e-01
2.52500000e+02	9.99042260e-01
2.53500000e+02	9.99008277e-01
2.54500000e+02	9.98973126e-01
2.55500000e+02	9.98936765e-01
2.56500000e+02	9.98899155e-01
2.57500000e+02	9.98860253e-01
2.58500000e+02	9.98820015e-01
2.59500000e+02	9.98778395e-01
2.60500000e+02	9.98735347e-01
2.61500000e+02	9.98690821e-01
2.62500000e+02	9.98644768e-01
2.63500000e+02	9.98597136e-01
2.64500000e+02	9.98547870e-01
2.65500000e+02	9.98496916e-01
2.66500000e+02	9.98444215e-01
2.67500000e+02	9.98389709e-01
2.68500000e+02	9.98333335e-01
2.69500000e+02	9.98275030e-01
2.70500000e+02	9.98214729e-01
2.71500000e+02	9.98152363e-01
2.72500000e+02	9.98087862e-01
2.73500000e+02	9.98021154e-01
2.74500000e+02	9.97952163e-01
2.75500000e+02	9.97880811e-01
2.76500000e+02	9.97807018e-01
2.77500000e+02	9.97730702e-01
2.78500000e+02	9.97651775e-01
2.79500000e+02	9.97570151e-01
2.80500000e+02	9.97485736e-01
2.81500000e+02	9.97398436e-01
2.82500000e+02	9.97308153e-01
2.83500000e+02	9.97214786e-01
2.84500000e+02	9.97118231e-01
2.85500000e+02	9.97018378e-01
2.86500000e+02	9.96915118e-01
2.87500000e+02	9.96808334e-01
2.88500000e+02	9.96697907e-01
2.89500000e+02	9.96583714e-01
2.90500000e+02	9.96465628e-01
2.91500000e+02	9.96343519e-01
2.92500000e+02	9.96217250e-01
2.93500000e+02	9.96086681e-01
2.94500000e+02	9.95951669e-01
2.95500000e+02	9.95812063e-01
2.96500000e+02	9.95667711e-01
2.97500000e+02	9.95518452e-01
2.98500000e+02	9.95364124e-01
2.99500000e+02	9.95204557e-01
3.00500000e+02	9.95039576e-01
3.01500000e+02	9.94869002e-01
3.02500000e+02	9.94692647e-01
3.03500000e+02	9.94510322e-01
3.04500000e+02	9.94321827e-01
3.05500000e+02	9.94126959e-01
3.06500000e+02	9.93925508e-01
3.07500000e+02	9.93717256e-01
3.08500000e+02	9.93501981e-01
3.09500000e+02	9.93279452e-01
3.10500000e+02	9.93049430e-01
3.11500000e+02	9.92811672e-01
3.12500000e+02	9.92565926e-01
3.13500000e+02	9.92311930e-01
3.14500000e+02	9.92049418e-01
3.15500000e+02	9.91778114e-01
3.16500000e+02	9.91497733e-01
3.17500000e+02	9.91207983e-01
3.18500000e+02	9.90908562e-01
3.19500000e+02	9.90599162e-01
3.20500000e+02	9.90279461e-01
3.21500000e+02	9.89949132e-01
3.22500000e+02	9.89607837e-01
3.23500000e+02	9.89255228e-01
3.24500000e+02	9.88890947e-01
3.25500000e+02	9.88514625e-01
3.26500000e+02	9.88125885e-01
3.27500000e+02	9.87724336e-01
3.28500000e+02	9.87309580e-01
3.29500000e+02	9.86881204e-01
3.30500000e+02	9.86438786e-01
3.31500000e+02	9.85981892e-01
3.32500000e+02	9.85510074e-01
3.33500000e+02	9.85022876e-01
3.34500000e+02	9.84519827e-01
3.35500000e+02	9.84000443e-01
3.36500000e+02	9.83464228e-01
3.37500000e+02	9.82910674e-01
3.38500000e+02	9.82339258e-01
3.39500000e+02	9.81749445e-01
3.40500000e+02	9.81140684e-01
3.41500000e+02	9.80512413e-01
3.42500000e+02	9.79864054e-01
3.43500000e+02	9.79195016e-01
3.44500000e+02	9.78504691e-01
3.45500000e+02	9.77792459e-01
3.46500000e+02	9.77057683e-01
3.47500000e+02	9.76299712e-01
3.48500000e+02	9.75517879e-01
3.49500000e+02	9.74711501e-01
3.50500000e+02	9.73879882e-01
3.51500000e+02	9.73022307e-01
3.52500000e+02	9.72138046e-01
3.53500000e+02	9.71226354e-01
3.54500000e+02	9.70286468e-01
3.55500000e+02	9.69317609e-01
3.56500000e+02	9.68318984e-01
3.57500000e+02	9.67289779e-01
3.58500000e+02	9.66229168e-01
3.59500000e+02	9.65136306e-01
3.60500000e+02	9.64010331e-01
3.61500000e+02	9.62850366e-01
3.62500000e+02	9.61655515e-01
3.63500000e+02	9.60424867e-01
3.64500000e+02	9.59157495e-01
3.65500000e+02	9.57852455e-01
3.66500000e+02	9.56508785e-01
3.67500000e+02	9.55125509e-01
3.68500000e+02	9.53701633e-01
3.69500000e+02	9.52236150e-01
3.70500000e+02	9.50728034e-01
3.71500000e+02	9.49176245e-01
3.72500000e+02	9.47579728e-01
3.73500000e+02	9.45937414e-01
3.74500000e+02	9.44248218e-01
3.75500000e+02	9.42511041e-01
3.76500000e+02	9.40724772e-01
3.77500000e+02	9.38888285e-01
3.78500000e+02	9.37000443e-01
3.79500000e+02	9.35060095e-01
3.80500000e+02	9.33066079e-01
3.81500000e+02	9.31017225e-01
3.82500000e+02	9.28912348e-01
3.83500000e+02	9.26750257e-01
3.84500000e+02	9.24529751e-01
3.85500000e+02	9.22249623e-01
3.86500000e+02	9.19908657e-01
3.87500000e+02	9.17505631e-01
3.88500000e+02	9.15039320e-01
3.89500000e+02	9.12508495e-01
3.90500000e+02	9.09911921e-01
3.91500000e+02	9.07248366e-01
3.92500000e+02	9.04516595e-01
3.93500000e+02	9.01715375e-01
3.94500000e+02	8.98843475e-01
3.95500000e+02	8.95899668e-01
3.96500000e+02	8.92882733e-01
3.97500000e+02	8.89791455e-01
3.98500000e+02	8.86624628e-01
3.99500000e+02	8.83381058e-01
4.00500000e+02	8.80059561e-01
4.01500000e+02	8.76658969e-01
4.02500000e+02	8.73178128e-01
4.03500000e+02	8.69615904e-01
4.04500000e+02	8.65971183e-01
4.05500000e+02	8.62242873e-01
4.06500000e+02	8.58429907e-01
4.07500000e+02	8.54531245e-01
4.08500000e+02	8.50545877e-01
4.09500000e+02	8.46472826e-01
4.10500000e+02	8.42311147e-01
4.11500000e+02	8.38059935e-01
4.12500000e+02	8.33718326e-01
4.13500000e+02	8.29285497e-01
4.14500000e+02	8.24760673e-01
4.15500000e+02	8.20143127e-01
4.16500000e+02	8.15432187e-01
4.17500000e+02	8.10627233e-01
4.18500000e+02	8.05727709e-01
4.19500000e+02	8.00733117e-01
4.20500000e+02	7.95643029e-01
4.21500000e+02	7.90457084e-01
4.22500000e+02	7.85174998e-01
4.23500000e+02	7.79796562e-01
4.24500000e+02	7.74321648e-01
4.25500000e+02	7.68750216e-01
4.26500000e+02	7.63082315e-01
4.27500000e+02	7.57318085e-01
4.28500000e+02	7.51457768e-01
4.29500000e+02	7.45501706e-01
4.30500000e+02	7.39450350e-01
4.31500000e+02	7.33304260e-01
4.32500000e+02	7.27064114e-01
4.33500000e+02	7.20730710e-01
4.34500000e+02	7.14304971e-01
4.35500000e+02	7.07787950e-01
4.36500000e+02	7.01180836e-01
4.37500000e+02	6.94484957e-01
4.38500000e+02	6.87701783e-01
4.39500000e+02	6.80832937e-01
4.40500000e+02	6.73880192e-01
4.41500000e+02	6.66845481e-01
4.42500000e+02	6.59730900e-01
4.43500000e+02	6.52538712e-01
4.44500000e+02	6.45271349e-01
4.45500000e+02	6.37931421e-01
4.46500000e+02	6.30521717e-01
4.47500000e+02	6.23045206e-01
4.48500000e+02	6.15505046e-01
4.49500000e+02	6.07904582e-01
4.50500000e+02	6.00247350e-01
4.51500000e+02	5.92537078e-01
4.52500000e+02	5.84777689e-01
4.53500000e+02	5.76973302e-01
4.54500000e+02	5.69128228e-01
4.55500000e+02	5.61246973e-01
4.56500000e+02	5.53334235e-01
4.57500000e+02	5.45394902e-01
4.58500000e+02	5.37434046e-01
4.59500000e+02	5.29456920e-01
4.60500000e+02	5.21468953e-01
4.61500000e+02	5.13475738e-01
4.62500000e+02	5.05483029e-01
4.63500000e+02	4.97496724e-01
4.64500000e+02	4.89522860e-01
4.65500000e+02	4.81567594e-01
4.66500000e+02	4.73637189e-01
4.67500000e+02	4.65737999e-01
4.68500000e+02	4.57876447e-01
4.69500000e+02	4.50059007e-01
4.70500000e+02	4.42292181e-01
4.71500000e+02	4.34582476e-01
4.72500000e+02	4.26936374e-01
4.73500000e+02	4.19360315e-01
4.74500000e+02	4.11860657e-01
4.75500000e+02	4.04443657e-01
4.76500000e+02	3.97115437e-01
4.77500000e+02	3.89881952e-01
4.78500000e+02	3.82748964e-01
4.79500000e+02	3.75722009e-01
4.80500000e+02	3.68806369e-01
4.81500000e+02	3.62007039e-01
4.82500000e+02	3.55328709e-01
4.83500000e+02	3.48775730e-01
4.84500000e+02	3.42352093e-01
4.85500000e+02	3.36061414e-01
4.86500000e+02	3.29906908e-01
4.87500000e+02	3.23891382e-01
4.88500000e+02	3.18017222e-01
4.89500000e+02	3.12286384e-01
4.90500000e+02	3.06700397e-01
4.91500000e+02	3.01260359e-01
4.92500000e+02	2.95966943e-01
4.93500000e+02	2.90820409e-01
4.94500000e+02	2.85820615e-01
4.95500000e+02	2.80967032e-01
4.96500000e+02	2.76258766e-01
4.97500000e+02	2.71694575e-01
4.98500000e+02	2.67272901e-01
4.99500000e+02	2.62991887e-01
5.00500000e+02	2.58849411e-01
5.01500000e+02	2.54843112e-01
5.02500000e+02	2.50970414e-01
5.03500000e+02	2.47228564e-01
5.04500000e+02	2.43614650e-01
5.05500000e+02	2.40125633e-01
5.06500000e+02	2.36758372e-01
5.07500000e+02	2.33509649e-01
5.08500000e+02	2.30376188e-01
5.09500000e+02	2.27354683e-01
5.10500000e+02	2.24441810e-01
5.11500000e+02	2.21634247e-01
5.12500000e+02	2.18928689e-01
5.13500000e+02	2.16321862e-01
5.14500000e+02	2.13810535e-01
5.15500000e+02	2.11391525e-01
5.16500000e+02	2.09061712e-01
5.17500000e+02	2.06818040e-01
5.18500000e+02	2.04657525e-01
5.19500000e+02	2.02577259e-01
5.20500000e+02	2.00574410e-01
5.21500000e+02	1.98646230e-01
5.22500000e+02	1.96790050e-01
5.23500000e+02	1.95003283e-01
5.24500000e+02	1.93283424e-01
5.25500000e+02	1.91628049e-01
5.26500000e+02	1.90034815e-01
5.27500000e+02	1.88501456e-01
5.28500000e+02	1.87025786e-01
5.29500000e+02	1.85605691e-01
5.30500000e+02	1.84239134e-01
5.31500000e+02	1.82924146e-01
5.32500000e+02	1.81658830e-01
5.33500000e+02	1.80441354e-01
5.34500000e+02	1.79269955e-01
5.35500000e+02	1.78142928e-01
5.36500000e+02	1.77058633e-01
5.37500000e+02	1.76015486e-01
5.38500000e+02	1.75011962e-01
5.39500000e+02	1.74046590e-01
5.40500000e+02	1.73117951e-01
5.41500000e+02	1.72224679e-01
5.42500000e+02	1.71365457e-01
5.43500000e+02	1.70539014e-01
5.44500000e+02	1.69744126e-01
5.45500000e+02	1.68979615e-01
5.46500000e+02	1.68244342e-01
5.47500000e+02	1.67537214e-01
5.48500000e+02	1.66857173e-01
5.49500000e+02	1.66203203e-01
5.50500000e+02	1.65574324e-01
5.51500000e+02	1.64969591e-01
5.52500000e+02	1.64388094e-01
5.53500000e+02	1.63828956e-01
5.54500000e+02	1.63291334e-01
5.55500000e+02	1.62774413e-01
5.56500000e+02	1.62277411e-01
5.57500000e+02	1.61799572e-01
5.58500000e+02	1.61340169e-01
5.59500000e+02	1.60898503e-01
5.60500000e+02	1.60473898e-01
5.61500000e+02	1.60065708e-01
5.62500000e+02	1.59673305e-01
5.63500000e+02	1.59296088e-01
5.64500000e+02	1.58933477e-01
5.65500000e+02	1.58584916e-01
5.66500000e+02	1.58249866e-01
5.67500000e+02	1.57927811e-01
5.68500000e+02	1.57618252e-01
5.69500000e+02	1.57320712e-01
5.70500000e+02	1.57034729e-01
5.71500000e+02	1.56759859e-01
5.72500000e+02	1.56495674e-01
5.73500000e+02	1.56241766e-01
5.74500000e+02	1.55997736e-01
5.75500000e+02	1.55763207e-01
5.76500000e+02	1.55537810e-01
5.77500000e+02	1.55321194e-01
5.78500000e+02	1.55113019e-01
5.79500000e+02	1.54912960e-01
5.80500000e+02	1.54720704e-01
5.81500000e+02	1.54535947e-01
5.82500000e+02	1.54358400e-01
5.83500000e+02	1.54187784e-01
5.84500000e+02	1.54023830e-01
5.85500000e+02	1.53866279e-01
5.86500000e+02	1.53714884e-01
5.87500000e+02	1.53569404e-01
5.88500000e+02	1.53429611e-01
5.89500000e+02	1.53295283e-01
5.90500000e+02	1.53166208e-01
5.91500000e+02	1.53042181e-01
5.92500000e+02	1.52923005e-01
5.93500000e+02	1.52808492e-01
5.94500000e+02	1.52698461e-01
5.95500000e+02	1.52592735e-01
5.96500000e+02	1.52491148e-01
5.97500000e+02	1.52393538e-01
5.98500000e+02	1.52299750e-01
5.99500000e+02	1.52209634e-01
6.00500000e+02	1.52123047e-01
6.01500000e+02	1.52039851e-01
6.02500000e+02	1.51959914e-01
6.03500000e+02	1.51883107e-01
6.04500000e+02	1.51809310e-01
6.05500000e+02	1.51738404e-01
6.06500000e+02	1.51670275e-01
6.07500000e+02	1.51604816e-01
6.08500000e+02	1.51541921e-01
6.09500000e+02	1.51481491e-01
6.10500000e+02	1.51423429e-01
6.11500000e+02	1.51367642e-01
6.12500000e+02	1.51314041e-01
6.13500000e+02	1.51262540e-01
6.14500000e+02	1.51213058e-01
6.15500000e+02	1.51165515e-01
6.16500000e+02	1.51119835e-01
6.17500000e+02	1.51075944e-01
6.18500000e+02	1.51033774e-01
6.19500000e+02	1.50993257e-01
6.20500000e+02	1.50954328e-01
6.21500000e+02	1.50916924e-01
6.22500000e+02	1.50880986e-01
6.23500000e+02	1.50846456e-01
6.24500000e+02	1.50813279e-01
6.25500000e+02	1.50781403e-01
6.26500000e+02	1.50750776e-01
6.27500000e+02	1.50721349e-01
6.28500000e+02	1.50693076e-01
6.29500000e+02	1.50665910e-01
6.30500000e+02	1.50639809e-01
6.31500000e+02	1.50614731e-01
6.32500000e+02	1.50590636e-01
6.33500000e+02	1.50567485e-01
6.34500000e+02	1.50545242e-01
6.35500000e+02	1.50523870e-01
6.36500000e+02	1.50503336e-01
6.37500000e+02	1.50483606e-01
6.38500000e+02	1.50464650e-01
6.39500000e+02	1.50446436e-01
6.40500000e+02	1.50428937e-01
6.41500000e+02	1.50412123e-01
6.42500000e+02	1.50395968e-01
6.43500000e+02	1.50380446e-01
6.44500000e+02	1.50365533e-01
6.45500000e+02	1.50351204e-01
6.46500000e+02	1.50337437e-01
6.47500000e+02	1.50324209e-01
6.48500000e+02	1.50311500e-01
6.49500000e+02	1.50299289e-01
6.50500000e+02	1.50287556e-01
6.51500000e+02	1.50276284e-01
6.52500000e+02	1.50265453e-01
6.53500000e+02	1.50255046e-01
6.54500000e+02	1.50245048e-01
6.55500000e+02	1.50235441e-01
6.56500000e+02	1.50226211e-01
6.57500000e+02	1.50217343e-01
6.58500000e+02	1.50208823e-01
6.59500000e+02	1.50200636e-01
6.60500000e+02	1.50192770e-01
