# Profil de Te au temps 1.900999999999955e-11 
# simu : /Volumes/MERCURE/JOBS/Zeq2_tanh_50mic_3p5e21_B0_20ps/GNU/Te@y-c.set
# col 0 : abscisse (um)
# col 1 : Te (keV)
5.00000000e-01	9.99932674e-01
1.50000000e+00	9.99932647e-01
2.50000000e+00	9.99932614e-01
3.50000000e+00	9.99932548e-01
4.50000000e+00	9.99932460e-01
5.50000000e+00	9.99932353e-01
6.50000000e+00	9.99932226e-01
7.50000000e+00	9.99932078e-01
8.50000000e+00	9.99931910e-01
9.50000000e+00	9.99931721e-01
1.05000000e+01	9.99931512e-01
1.15000000e+01	9.99931282e-01
1.25000000e+01	9.99931030e-01
1.35000000e+01	9.99930758e-01
1.45000000e+01	9.99930464e-01
1.55000000e+01	9.99930149e-01
1.65000000e+01	9.99929812e-01
1.75000000e+01	9.99929453e-01
1.85000000e+01	9.99929073e-01
1.95000000e+01	9.99928671e-01
2.05000000e+01	9.99928246e-01
2.15000000e+01	9.99927799e-01
2.25000000e+01	9.99927330e-01
2.35000000e+01	9.99926838e-01
2.45000000e+01	9.99926322e-01
2.55000000e+01	9.99925784e-01
2.65000000e+01	9.99925222e-01
2.75000000e+01	9.99924637e-01
2.85000000e+01	9.99924027e-01
2.95000000e+01	9.99923394e-01
3.05000000e+01	9.99922736e-01
3.15000000e+01	9.99922053e-01
3.25000000e+01	9.99921346e-01
3.35000000e+01	9.99920613e-01
3.45000000e+01	9.99919854e-01
3.55000000e+01	9.99919070e-01
3.65000000e+01	9.99918259e-01
3.75000000e+01	9.99917422e-01
3.85000000e+01	9.99916558e-01
3.95000000e+01	9.99915667e-01
4.05000000e+01	9.99914748e-01
4.15000000e+01	9.99913801e-01
4.25000000e+01	9.99912825e-01
4.35000000e+01	9.99911820e-01
4.45000000e+01	9.99910787e-01
4.55000000e+01	9.99909723e-01
4.65000000e+01	9.99908629e-01
4.75000000e+01	9.99907505e-01
4.85000000e+01	9.99906349e-01
4.95000000e+01	9.99905162e-01
5.05000000e+01	9.99903942e-01
5.15000000e+01	9.99902690e-01
5.25000000e+01	9.99901405e-01
5.35000000e+01	9.99900085e-01
5.45000000e+01	9.99898732e-01
5.55000000e+01	9.99897343e-01
5.65000000e+01	9.99895919e-01
5.75000000e+01	9.99894458e-01
5.85000000e+01	9.99892961e-01
5.95000000e+01	9.99891427e-01
6.05000000e+01	9.99889854e-01
6.15000000e+01	9.99888242e-01
6.25000000e+01	9.99886591e-01
6.35000000e+01	9.99884899e-01
6.45000000e+01	9.99883166e-01
6.55000000e+01	9.99881392e-01
6.65000000e+01	9.99879575e-01
6.75000000e+01	9.99877714e-01
6.85000000e+01	9.99875809e-01
6.95000000e+01	9.99873860e-01
7.05000000e+01	9.99871864e-01
7.15000000e+01	9.99869821e-01
7.25000000e+01	9.99867730e-01
7.35000000e+01	9.99865591e-01
7.45000000e+01	9.99863402e-01
7.55000000e+01	9.99861162e-01
7.65000000e+01	9.99858871e-01
7.75000000e+01	9.99856526e-01
7.85000000e+01	9.99854128e-01
7.95000000e+01	9.99851675e-01
8.05000000e+01	9.99849166e-01
8.15000000e+01	9.99846600e-01
8.25000000e+01	9.99843975e-01
8.35000000e+01	9.99841291e-01
8.45000000e+01	9.99838545e-01
8.55000000e+01	9.99835738e-01
8.65000000e+01	9.99832867e-01
8.75000000e+01	9.99829931e-01
8.85000000e+01	9.99826929e-01
8.95000000e+01	9.99823860e-01
9.05000000e+01	9.99820721e-01
9.15000000e+01	9.99817512e-01
9.25000000e+01	9.99814231e-01
9.35000000e+01	9.99810876e-01
9.45000000e+01	9.99807446e-01
9.55000000e+01	9.99803940e-01
9.65000000e+01	9.99800354e-01
9.75000000e+01	9.99796689e-01
9.85000000e+01	9.99792942e-01
9.95000000e+01	9.99789111e-01
1.00500000e+02	9.99785194e-01
1.01500000e+02	9.99781190e-01
1.02500000e+02	9.99777096e-01
1.03500000e+02	9.99772911e-01
1.04500000e+02	9.99768632e-01
1.05500000e+02	9.99764258e-01
1.06500000e+02	9.99759786e-01
1.07500000e+02	9.99755214e-01
1.08500000e+02	9.99750540e-01
1.09500000e+02	9.99745761e-01
1.10500000e+02	9.99740876e-01
1.11500000e+02	9.99735882e-01
1.12500000e+02	9.99730775e-01
1.13500000e+02	9.99725555e-01
1.14500000e+02	9.99720217e-01
1.15500000e+02	9.99714760e-01
1.16500000e+02	9.99709181e-01
1.17500000e+02	9.99703477e-01
1.18500000e+02	9.99697645e-01
1.19500000e+02	9.99691682e-01
1.20500000e+02	9.99685584e-01
1.21500000e+02	9.99679350e-01
1.22500000e+02	9.99672976e-01
1.23500000e+02	9.99666458e-01
1.24500000e+02	9.99659794e-01
1.25500000e+02	9.99652979e-01
1.26500000e+02	9.99646011e-01
1.27500000e+02	9.99638885e-01
1.28500000e+02	9.99631599e-01
1.29500000e+02	9.99624147e-01
1.30500000e+02	9.99616528e-01
1.31500000e+02	9.99608735e-01
1.32500000e+02	9.99600766e-01
1.33500000e+02	9.99592617e-01
1.34500000e+02	9.99584282e-01
1.35500000e+02	9.99575758e-01
1.36500000e+02	9.99567040e-01
1.37500000e+02	9.99558124e-01
1.38500000e+02	9.99549004e-01
1.39500000e+02	9.99539677e-01
1.40500000e+02	9.99530137e-01
1.41500000e+02	9.99520379e-01
1.42500000e+02	9.99510397e-01
1.43500000e+02	9.99500188e-01
1.44500000e+02	9.99489744e-01
1.45500000e+02	9.99479061e-01
1.46500000e+02	9.99468132e-01
1.47500000e+02	9.99456953e-01
1.48500000e+02	9.99445517e-01
1.49500000e+02	9.99433817e-01
1.50500000e+02	9.99421847e-01
1.51500000e+02	9.99409602e-01
1.52500000e+02	9.99397074e-01
1.53500000e+02	9.99384256e-01
1.54500000e+02	9.99371142e-01
1.55500000e+02	9.99357724e-01
1.56500000e+02	9.99343996e-01
1.57500000e+02	9.99329949e-01
1.58500000e+02	9.99315575e-01
1.59500000e+02	9.99300868e-01
1.60500000e+02	9.99285818e-01
1.61500000e+02	9.99270418e-01
1.62500000e+02	9.99254660e-01
1.63500000e+02	9.99238533e-01
1.64500000e+02	9.99222030e-01
1.65500000e+02	9.99205141e-01
1.66500000e+02	9.99187857e-01
1.67500000e+02	9.99170168e-01
1.68500000e+02	9.99152065e-01
1.69500000e+02	9.99133537e-01
1.70500000e+02	9.99114575e-01
1.71500000e+02	9.99095166e-01
1.72500000e+02	9.99075301e-01
1.73500000e+02	9.99054969e-01
1.74500000e+02	9.99034157e-01
1.75500000e+02	9.99012854e-01
1.76500000e+02	9.98991049e-01
1.77500000e+02	9.98968729e-01
1.78500000e+02	9.98945881e-01
1.79500000e+02	9.98922493e-01
1.80500000e+02	9.98898551e-01
1.81500000e+02	9.98874041e-01
1.82500000e+02	9.98848951e-01
1.83500000e+02	9.98823265e-01
1.84500000e+02	9.98796968e-01
1.85500000e+02	9.98770047e-01
1.86500000e+02	9.98742485e-01
1.87500000e+02	9.98714268e-01
1.88500000e+02	9.98685378e-01
1.89500000e+02	9.98655800e-01
1.90500000e+02	9.98625516e-01
1.91500000e+02	9.98594509e-01
1.92500000e+02	9.98562762e-01
1.93500000e+02	9.98530256e-01
1.94500000e+02	9.98496972e-01
1.95500000e+02	9.98462893e-01
1.96500000e+02	9.98427997e-01
1.97500000e+02	9.98392265e-01
1.98500000e+02	9.98355677e-01
1.99500000e+02	9.98318211e-01
2.00500000e+02	9.98279846e-01
2.01500000e+02	9.98240560e-01
2.02500000e+02	9.98200330e-01
2.03500000e+02	9.98159133e-01
2.04500000e+02	9.98116946e-01
2.05500000e+02	9.98073744e-01
2.06500000e+02	9.98029502e-01
2.07500000e+02	9.97984195e-01
2.08500000e+02	9.97937797e-01
2.09500000e+02	9.97890280e-01
2.10500000e+02	9.97841619e-01
2.11500000e+02	9.97791784e-01
2.12500000e+02	9.97740746e-01
2.13500000e+02	9.97688477e-01
2.14500000e+02	9.97634947e-01
2.15500000e+02	9.97580124e-01
2.16500000e+02	9.97523977e-01
2.17500000e+02	9.97466474e-01
2.18500000e+02	9.97407581e-01
2.19500000e+02	9.97347265e-01
2.20500000e+02	9.97285492e-01
2.21500000e+02	9.97222224e-01
2.22500000e+02	9.97157427e-01
2.23500000e+02	9.97091063e-01
2.24500000e+02	9.97023094e-01
2.25500000e+02	9.96953481e-01
2.26500000e+02	9.96882184e-01
2.27500000e+02	9.96809162e-01
2.28500000e+02	9.96734374e-01
2.29500000e+02	9.96657776e-01
2.30500000e+02	9.96579325e-01
2.31500000e+02	9.96498977e-01
2.32500000e+02	9.96416685e-01
2.33500000e+02	9.96332402e-01
2.34500000e+02	9.96246081e-01
2.35500000e+02	9.96157673e-01
2.36500000e+02	9.96067127e-01
2.37500000e+02	9.95974392e-01
2.38500000e+02	9.95879415e-01
2.39500000e+02	9.95782143e-01
2.40500000e+02	9.95682521e-01
2.41500000e+02	9.95580493e-01
2.42500000e+02	9.95476001e-01
2.43500000e+02	9.95368987e-01
2.44500000e+02	9.95259390e-01
2.45500000e+02	9.95147149e-01
2.46500000e+02	9.95032201e-01
2.47500000e+02	9.94914482e-01
2.48500000e+02	9.94793927e-01
2.49500000e+02	9.94670468e-01
2.50500000e+02	9.94544037e-01
2.51500000e+02	9.94414563e-01
2.52500000e+02	9.94281976e-01
2.53500000e+02	9.94146202e-01
2.54500000e+02	9.94007166e-01
2.55500000e+02	9.93864792e-01
2.56500000e+02	9.93719001e-01
2.57500000e+02	9.93569715e-01
2.58500000e+02	9.93416851e-01
2.59500000e+02	9.93260327e-01
2.60500000e+02	9.93100057e-01
2.61500000e+02	9.92935955e-01
2.62500000e+02	9.92767932e-01
2.63500000e+02	9.92595897e-01
2.64500000e+02	9.92419759e-01
2.65500000e+02	9.92239423e-01
2.66500000e+02	9.92054792e-01
2.67500000e+02	9.91865768e-01
2.68500000e+02	9.91672251e-01
2.69500000e+02	9.91474139e-01
2.70500000e+02	9.91271327e-01
2.71500000e+02	9.91063709e-01
2.72500000e+02	9.90851175e-01
2.73500000e+02	9.90633614e-01
2.74500000e+02	9.90410914e-01
2.75500000e+02	9.90182959e-01
2.76500000e+02	9.89949632e-01
2.77500000e+02	9.89710811e-01
2.78500000e+02	9.89466375e-01
2.79500000e+02	9.89216198e-01
2.80500000e+02	9.88960153e-01
2.81500000e+02	9.88698111e-01
2.82500000e+02	9.88429939e-01
2.83500000e+02	9.88155502e-01
2.84500000e+02	9.87874662e-01
2.85500000e+02	9.87587280e-01
2.86500000e+02	9.87293213e-01
2.87500000e+02	9.86992315e-01
2.88500000e+02	9.86684439e-01
2.89500000e+02	9.86369432e-01
2.90500000e+02	9.86047142e-01
2.91500000e+02	9.85717412e-01
2.92500000e+02	9.85380083e-01
2.93500000e+02	9.85034992e-01
2.94500000e+02	9.84681974e-01
2.95500000e+02	9.84320860e-01
2.96500000e+02	9.83951481e-01
2.97500000e+02	9.83573661e-01
2.98500000e+02	9.83187222e-01
2.99500000e+02	9.82791986e-01
3.00500000e+02	9.82387768e-01
3.01500000e+02	9.81974381e-01
3.02500000e+02	9.81551636e-01
3.03500000e+02	9.81119340e-01
3.04500000e+02	9.80677296e-01
3.05500000e+02	9.80225304e-01
3.06500000e+02	9.79763162e-01
3.07500000e+02	9.79290663e-01
3.08500000e+02	9.78807597e-01
3.09500000e+02	9.78313752e-01
3.10500000e+02	9.77808911e-01
3.11500000e+02	9.77292853e-01
3.12500000e+02	9.76765356e-01
3.13500000e+02	9.76226192e-01
3.14500000e+02	9.75675131e-01
3.15500000e+02	9.75111939e-01
3.16500000e+02	9.74536377e-01
3.17500000e+02	9.73948204e-01
3.18500000e+02	9.73347177e-01
3.19500000e+02	9.72733044e-01
3.20500000e+02	9.72105556e-01
3.21500000e+02	9.71464454e-01
3.22500000e+02	9.70809481e-01
3.23500000e+02	9.70140371e-01
3.24500000e+02	9.69456858e-01
3.25500000e+02	9.68758670e-01
3.26500000e+02	9.68045534e-01
3.27500000e+02	9.67317169e-01
3.28500000e+02	9.66573294e-01
3.29500000e+02	9.65813622e-01
3.30500000e+02	9.65037863e-01
3.31500000e+02	9.64245722e-01
3.32500000e+02	9.63436903e-01
3.33500000e+02	9.62611102e-01
3.34500000e+02	9.61768014e-01
3.35500000e+02	9.60907330e-01
3.36500000e+02	9.60028736e-01
3.37500000e+02	9.59131913e-01
3.38500000e+02	9.58216542e-01
3.39500000e+02	9.57282296e-01
3.40500000e+02	9.56328846e-01
3.41500000e+02	9.55355859e-01
3.42500000e+02	9.54362998e-01
3.43500000e+02	9.53349921e-01
3.44500000e+02	9.52316284e-01
3.45500000e+02	9.51261737e-01
3.46500000e+02	9.50185928e-01
3.47500000e+02	9.49088500e-01
3.48500000e+02	9.47969092e-01
3.49500000e+02	9.46827340e-01
3.50500000e+02	9.45662874e-01
3.51500000e+02	9.44475323e-01
3.52500000e+02	9.43264310e-01
3.53500000e+02	9.42029456e-01
3.54500000e+02	9.40770376e-01
3.55500000e+02	9.39486682e-01
3.56500000e+02	9.38177982e-01
3.57500000e+02	9.36843883e-01
3.58500000e+02	9.35483983e-01
3.59500000e+02	9.34097880e-01
3.60500000e+02	9.32685168e-01
3.61500000e+02	9.31245436e-01
3.62500000e+02	9.29778270e-01
3.63500000e+02	9.28283252e-01
3.64500000e+02	9.26759961e-01
3.65500000e+02	9.25207972e-01
3.66500000e+02	9.23626856e-01
3.67500000e+02	9.22016180e-01
3.68500000e+02	9.20375510e-01
3.69500000e+02	9.18704406e-01
3.70500000e+02	9.17002425e-01
3.71500000e+02	9.15269122e-01
3.72500000e+02	9.13504046e-01
3.73500000e+02	9.11706746e-01
3.74500000e+02	9.09876764e-01
3.75500000e+02	9.08013642e-01
3.76500000e+02	9.06116916e-01
3.77500000e+02	9.04186122e-01
3.78500000e+02	9.02220790e-01
3.79500000e+02	9.00220447e-01
3.80500000e+02	8.98184620e-01
3.81500000e+02	8.96112829e-01
3.82500000e+02	8.94004594e-01
3.83500000e+02	8.91859430e-01
3.84500000e+02	8.89676852e-01
3.85500000e+02	8.87456368e-01
3.86500000e+02	8.85197488e-01
3.87500000e+02	8.82899716e-01
3.88500000e+02	8.80562554e-01
3.89500000e+02	8.78185503e-01
3.90500000e+02	8.75768060e-01
3.91500000e+02	8.73309719e-01
3.92500000e+02	8.70809974e-01
3.93500000e+02	8.68268315e-01
3.94500000e+02	8.65684231e-01
3.95500000e+02	8.63057207e-01
3.96500000e+02	8.60386729e-01
3.97500000e+02	8.57672277e-01
3.98500000e+02	8.54913334e-01
3.99500000e+02	8.52109378e-01
4.00500000e+02	8.49259885e-01
4.01500000e+02	8.46364333e-01
4.02500000e+02	8.43422195e-01
4.03500000e+02	8.40432945e-01
4.04500000e+02	8.37396054e-01
4.05500000e+02	8.34310995e-01
4.06500000e+02	8.31177237e-01
4.07500000e+02	8.27994250e-01
4.08500000e+02	8.24761503e-01
4.09500000e+02	8.21478465e-01
4.10500000e+02	8.18144605e-01
4.11500000e+02	8.14759392e-01
4.12500000e+02	8.11322294e-01
4.13500000e+02	8.07832781e-01
4.14500000e+02	8.04290324e-01
4.15500000e+02	8.00694393e-01
4.16500000e+02	7.97044461e-01
4.17500000e+02	7.93340002e-01
4.18500000e+02	7.89580491e-01
4.19500000e+02	7.85765407e-01
4.20500000e+02	7.81894230e-01
4.21500000e+02	7.77966444e-01
4.22500000e+02	7.73981533e-01
4.23500000e+02	7.69938990e-01
4.24500000e+02	7.65838309e-01
4.25500000e+02	7.61678987e-01
4.26500000e+02	7.57460531e-01
4.27500000e+02	7.53182449e-01
4.28500000e+02	7.48844258e-01
4.29500000e+02	7.44445482e-01
4.30500000e+02	7.39985651e-01
4.31500000e+02	7.35464305e-01
4.32500000e+02	7.30880993e-01
4.33500000e+02	7.26235274e-01
4.34500000e+02	7.21526719e-01
4.35500000e+02	7.16754909e-01
4.36500000e+02	7.11919440e-01
4.37500000e+02	7.07019923e-01
4.38500000e+02	7.02055983e-01
4.39500000e+02	6.97027262e-01
4.40500000e+02	6.91933424e-01
4.41500000e+02	6.86774149e-01
4.42500000e+02	6.81549140e-01
4.43500000e+02	6.76258126e-01
4.44500000e+02	6.70900859e-01
4.45500000e+02	6.65477122e-01
4.46500000e+02	6.59986725e-01
4.47500000e+02	6.54429512e-01
4.48500000e+02	6.48805365e-01
4.49500000e+02	6.43114202e-01
4.50500000e+02	6.37355984e-01
4.51500000e+02	6.31530716e-01
4.52500000e+02	6.25638453e-01
4.53500000e+02	6.19679302e-01
4.54500000e+02	6.13653429e-01
4.55500000e+02	6.07561061e-01
4.56500000e+02	6.01402492e-01
4.57500000e+02	5.95178087e-01
4.58500000e+02	5.88888292e-01
4.59500000e+02	5.82533635e-01
4.60500000e+02	5.76114738e-01
4.61500000e+02	5.69632318e-01
4.62500000e+02	5.63087201e-01
4.63500000e+02	5.56480327e-01
4.64500000e+02	5.49812759e-01
4.65500000e+02	5.43085694e-01
4.66500000e+02	5.36300471e-01
4.67500000e+02	5.29458584e-01
4.68500000e+02	5.22561693e-01
4.69500000e+02	5.15611635e-01
4.70500000e+02	5.08610438e-01
4.71500000e+02	5.01560334e-01
4.72500000e+02	4.94463774e-01
4.73500000e+02	4.87323441e-01
4.74500000e+02	4.80142269e-01
4.75500000e+02	4.72923454e-01
4.76500000e+02	4.65670474e-01
4.77500000e+02	4.58387102e-01
4.78500000e+02	4.51077426e-01
4.79500000e+02	4.43745861e-01
4.80500000e+02	4.36397168e-01
4.81500000e+02	4.29036467e-01
4.82500000e+02	4.21669249e-01
4.83500000e+02	4.14301387e-01
4.84500000e+02	4.06939150e-01
4.85500000e+02	3.99589199e-01
4.86500000e+02	3.92258600e-01
4.87500000e+02	3.84954809e-01
4.88500000e+02	3.77685674e-01
4.89500000e+02	3.70459413e-01
4.90500000e+02	3.63284594e-01
4.91500000e+02	3.56170102e-01
4.92500000e+02	3.49125099e-01
4.93500000e+02	3.42158975e-01
4.94500000e+02	3.35281285e-01
4.95500000e+02	3.28501675e-01
4.96500000e+02	3.21829805e-01
4.97500000e+02	3.15275248e-01
4.98500000e+02	3.08847393e-01
4.99500000e+02	3.02555334e-01
5.00500000e+02	2.96407755e-01
5.01500000e+02	2.90412811e-01
5.02500000e+02	2.84578014e-01
5.03500000e+02	2.78910118e-01
5.04500000e+02	2.73415023e-01
5.05500000e+02	2.68097677e-01
5.06500000e+02	2.62962008e-01
5.07500000e+02	2.58010871e-01
5.08500000e+02	2.53246018e-01
5.09500000e+02	2.48668090e-01
5.10500000e+02	2.44276640e-01
5.11500000e+02	2.40070169e-01
5.12500000e+02	2.36046201e-01
5.13500000e+02	2.32201358e-01
5.14500000e+02	2.28531463e-01
5.15500000e+02	2.25031652e-01
5.16500000e+02	2.21696487e-01
5.17500000e+02	2.18520078e-01
5.18500000e+02	2.15496196e-01
5.19500000e+02	2.12618389e-01
5.20500000e+02	2.09880081e-01
5.21500000e+02	2.07274662e-01
5.22500000e+02	2.04795573e-01
5.23500000e+02	2.02436370e-01
5.24500000e+02	2.00190778e-01
5.25500000e+02	1.98052735e-01
5.26500000e+02	1.96016426e-01
5.27500000e+02	1.94076299e-01
5.28500000e+02	1.92227083e-01
5.29500000e+02	1.90463792e-01
5.30500000e+02	1.88781725e-01
5.31500000e+02	1.87176459e-01
5.32500000e+02	1.85643846e-01
5.33500000e+02	1.84179994e-01
5.34500000e+02	1.82781264e-01
5.35500000e+02	1.81444245e-01
5.36500000e+02	1.80165749e-01
5.37500000e+02	1.78942791e-01
5.38500000e+02	1.77772578e-01
5.39500000e+02	1.76652493e-01
5.40500000e+02	1.75580080e-01
5.41500000e+02	1.74553039e-01
5.42500000e+02	1.73569205e-01
5.43500000e+02	1.72626545e-01
5.44500000e+02	1.71723145e-01
5.45500000e+02	1.70857200e-01
5.46500000e+02	1.70027006e-01
5.47500000e+02	1.69230956e-01
5.48500000e+02	1.68467527e-01
5.49500000e+02	1.67735279e-01
5.50500000e+02	1.67032848e-01
5.51500000e+02	1.66358939e-01
5.52500000e+02	1.65712321e-01
5.53500000e+02	1.65091827e-01
5.54500000e+02	1.64496346e-01
5.55500000e+02	1.63924819e-01
5.56500000e+02	1.63376239e-01
5.57500000e+02	1.62849646e-01
5.58500000e+02	1.62344124e-01
5.59500000e+02	1.61858800e-01
5.60500000e+02	1.61392838e-01
5.61500000e+02	1.60945443e-01
5.62500000e+02	1.60515852e-01
5.63500000e+02	1.60103338e-01
5.64500000e+02	1.59707205e-01
5.65500000e+02	1.59326785e-01
5.66500000e+02	1.58961443e-01
5.67500000e+02	1.58610568e-01
5.68500000e+02	1.58273576e-01
5.69500000e+02	1.57949906e-01
5.70500000e+02	1.57639025e-01
5.71500000e+02	1.57340417e-01
5.72500000e+02	1.57053590e-01
5.73500000e+02	1.56778074e-01
5.74500000e+02	1.56513415e-01
5.75500000e+02	1.56259181e-01
5.76500000e+02	1.56014955e-01
5.77500000e+02	1.55780339e-01
5.78500000e+02	1.55554950e-01
5.79500000e+02	1.55338422e-01
5.80500000e+02	1.55130402e-01
5.81500000e+02	1.54930553e-01
5.82500000e+02	1.54738550e-01
5.83500000e+02	1.54554084e-01
5.84500000e+02	1.54376855e-01
5.85500000e+02	1.54206577e-01
5.86500000e+02	1.54042975e-01
5.87500000e+02	1.53885785e-01
5.88500000e+02	1.53734755e-01
5.89500000e+02	1.53589640e-01
5.90500000e+02	1.53450208e-01
5.91500000e+02	1.53316234e-01
5.92500000e+02	1.53187504e-01
5.93500000e+02	1.53063810e-01
5.94500000e+02	1.52944955e-01
5.95500000e+02	1.52830747e-01
5.96500000e+02	1.52721004e-01
5.97500000e+02	1.52615551e-01
5.98500000e+02	1.52514218e-01
5.99500000e+02	1.52416844e-01
6.00500000e+02	1.52323273e-01
6.01500000e+02	1.52233355e-01
6.02500000e+02	1.52146948e-01
6.03500000e+02	1.52063914e-01
6.04500000e+02	1.51984119e-01
6.05500000e+02	1.51907438e-01
6.06500000e+02	1.51833748e-01
6.07500000e+02	1.51762931e-01
6.08500000e+02	1.51694875e-01
6.09500000e+02	1.51629472e-01
6.10500000e+02	1.51566618e-01
6.11500000e+02	1.51506213e-01
6.12500000e+02	1.51448161e-01
6.13500000e+02	1.51392370e-01
6.14500000e+02	1.51338752e-01
6.15500000e+02	1.51287222e-01
6.16500000e+02	1.51237697e-01
6.17500000e+02	1.51190100e-01
6.18500000e+02	1.51144355e-01
6.19500000e+02	1.51100390e-01
6.20500000e+02	1.51058134e-01
6.21500000e+02	1.51017523e-01
6.22500000e+02	1.50978490e-01
6.23500000e+02	1.50940975e-01
6.24500000e+02	1.50904919e-01
6.25500000e+02	1.50870264e-01
6.26500000e+02	1.50836955e-01
6.27500000e+02	1.50804941e-01
6.28500000e+02	1.50774171e-01
6.29500000e+02	1.50744595e-01
6.30500000e+02	1.50716169e-01
6.31500000e+02	1.50688846e-01
6.32500000e+02	1.50662585e-01
6.33500000e+02	1.50637343e-01
6.34500000e+02	1.50613081e-01
6.35500000e+02	1.50589760e-01
6.36500000e+02	1.50567345e-01
6.37500000e+02	1.50545800e-01
6.38500000e+02	1.50525091e-01
6.39500000e+02	1.50505186e-01
6.40500000e+02	1.50486053e-01
6.41500000e+02	1.50467663e-01
6.42500000e+02	1.50449986e-01
6.43500000e+02	1.50432995e-01
6.44500000e+02	1.50416664e-01
6.45500000e+02	1.50400966e-01
6.46500000e+02	1.50385878e-01
6.47500000e+02	1.50371375e-01
6.48500000e+02	1.50357435e-01
6.49500000e+02	1.50344036e-01
6.50500000e+02	1.50331157e-01
6.51500000e+02	1.50318779e-01
6.52500000e+02	1.50306881e-01
6.53500000e+02	1.50295446e-01
6.54500000e+02	1.50284455e-01
6.55500000e+02	1.50273891e-01
6.56500000e+02	1.50263738e-01
6.57500000e+02	1.50253979e-01
6.58500000e+02	1.50244601e-01
6.59500000e+02	1.50235588e-01
6.60500000e+02	1.50226926e-01
