# Profil de ElecSpitzerX au temps 1.200000000000016e-11 
# simu : /Volumes/MERCURE/JOBS/tanh_10mic_Zeq10_B0/GNU/ElecSpitzerX@y-c.set
# col 0 : abscisse (um)
# col 1 : ElecSpitzerX (V/m)
0.000000	-0.000000
0.200000	17292.505447
0.400000	31217.039693
0.600000	51062.979710
0.800000	69412.792378
1.000000	83446.817766
1.200000	96860.717027
1.400000	113804.407789
1.600000	132188.661705
1.800000	150065.442958
2.000000	167039.781662
2.200000	183465.391677
2.400000	199744.478689
2.600000	216052.546563
2.800000	232504.417011
3.000000	249094.989816
3.200000	265761.900455
3.400000	282489.390612
3.600000	299194.138944
3.800000	315931.627997
4.000000	332700.006777
4.200000	349478.976280
4.400000	366231.778018
4.600000	382986.575405
4.800000	399793.910861
5.000000	416620.587611
5.200000	433407.280665
5.400000	450233.612787
5.600000	467106.082329
5.800000	484005.550527
6.000000	500838.532963
6.200000	517778.227028
6.400000	534738.312693
6.600000	551676.072014
6.800000	568640.683048
7.000000	585670.357483
7.200000	602723.849142
7.400000	619726.579958
7.600000	636832.326290
7.800000	653971.327608
8.000000	671072.016015
8.200000	688238.014608
8.400000	705457.016905
8.600000	722678.004895
8.800000	739901.986707
9.000000	757214.092843
9.200000	774555.988229
9.400000	791849.288412
9.600000	809261.369428
9.800000	826709.676837
10.000000	844117.308486
10.200000	861614.488268
10.400000	879169.856174
10.600000	896711.683180
10.800000	914296.016206
11.000000	931964.258843
11.200000	949646.755320
11.400000	967326.151900
11.600000	985114.902891
11.800000	1002944.262026
12.000000	1020727.069289
12.200000	1038644.131358
12.400000	1056611.234473
12.600000	1074533.355850
12.800000	1092570.949857
13.000000	1110672.889121
13.200000	1128753.953746
13.400000	1146917.368939
13.600000	1165163.296743
13.800000	1183406.443343
14.000000	1201704.149836
14.200000	1220100.933079
14.400000	1238512.255896
14.600000	1256952.707057
14.800000	1275508.066084
15.000000	1294093.325548
15.200000	1312686.926450
15.400000	1331408.137189
15.600000	1350171.879116
15.800000	1368928.964388
16.000000	1387822.102958
16.200000	1406769.988646
16.400000	1425698.594401
16.600000	1444774.499083
16.800000	1463911.602024
17.000000	1483021.895219
17.200000	1502287.597271
17.400000	1521618.757973
17.600000	1540923.348027
17.800000	1560384.858861
18.000000	1579913.732131
18.200000	1599420.632656
18.400000	1619088.923738
18.600000	1638826.107883
18.800000	1658546.975414
19.000000	1678425.039166
19.200000	1698371.170611
19.400000	1718315.892147
19.600000	1738420.420230
19.800000	1758586.636640
20.000000	1778757.128598
20.200000	1799093.993102
20.400000	1819480.606058
20.600000	1839907.990724
20.800000	1860473.514249
21.000000	1881088.469467
21.200000	1901772.070807
21.400000	1922595.844058
21.600000	1943433.809685
21.800000	1964387.793455
22.000000	1985469.717342
22.200000	2006550.558134
22.400000	2027781.354758
22.600000	2049120.956228
22.800000	2070467.223883
23.000000	2091980.172079
23.200000	2113570.595284
23.400000	2135216.521053
23.600000	2157008.766340
23.800000	2178856.940479
24.000000	2200814.087835
24.200000	2222898.092298
24.400000	2245009.942204
24.600000	2267294.254063
24.800000	2289652.041678
25.000000	2312081.206514
25.200000	2334678.525289
25.400000	2357313.306050
25.600000	2380085.121837
25.800000	2402991.421128
26.000000	2425925.477606
26.200000	2449049.729112
26.400000	2472244.235610
26.600000	2495536.806724
26.800000	2518997.306826
27.000000	2542489.015130
27.200000	2566163.072505
27.400000	2589930.063678
27.600000	2613791.261400
27.800000	2637822.423944
28.000000	2661905.768422
28.200000	2686162.562662
28.400000	2710519.142619
28.600000	2734992.310741
28.800000	2759614.959316
29.000000	2784320.738456
29.200000	2809197.418397
29.400000	2834165.500995
29.600000	2859285.526481
29.800000	2884527.908173
30.000000	2909888.693064
30.200000	2935418.165144
30.400000	2961025.102461
30.600000	2986825.628354
30.800000	3012719.887541
31.000000	3038771.286556
31.200000	3064965.778818
31.400000	3091275.413151
31.600000	3117767.176160
31.800000	3144353.064543
32.000000	3171128.525687
32.200000	3198018.616424
32.400000	3225070.145348
32.600000	3252267.954325
32.800000	3279610.931089
33.000000	3307113.819511
33.200000	3334757.142977
33.400000	3362571.131132
33.600000	3390516.554645
33.800000	3418651.048141
34.000000	3446907.756321
34.200000	3475357.701162
34.400000	3503943.478968
34.600000	3532707.277244
34.800000	3561631.074733
35.000000	3590715.134164
35.200000	3619977.505463
35.400000	3649396.307824
35.600000	3678997.072741
35.800000	3708759.538795
36.000000	3738704.750631
36.200000	3768812.355137
36.400000	3799116.269761
36.600000	3829571.934292
36.800000	3860235.412998
37.000000	3891054.259193
37.200000	3922077.419183
37.400000	3953271.174736
37.600000	3984658.370380
37.800000	4016228.490953
38.000000	4047993.826791
38.200000	4079942.798066
38.400000	4112093.534411
38.600000	4144429.360267
38.800000	4176968.639662
39.000000	4209703.205501
39.200000	4242635.623073
39.400000	4275773.711860
39.600000	4309110.042837
39.800000	4342653.909368
40.000000	4376405.402531
40.200000	4410362.034102
40.400000	4444531.785992
40.600000	4478913.141724
40.800000	4513505.061541
41.000000	4548318.248967
41.200000	4583342.791920
41.400000	4618591.736824
41.600000	4654058.523684
41.800000	4689749.253210
42.000000	4725666.346664
42.200000	4761807.103560
42.400000	4798179.404079
42.600000	4834781.111195
42.800000	4871614.817120
43.000000	4908684.248077
43.200000	4945988.502251
43.400000	4983532.364150
43.600000	5021316.268611
43.800000	5059341.675326
44.000000	5097613.003561
44.200000	5136128.332166
44.400000	5174894.404896
44.600000	5213908.452079
44.800000	5253176.726818
45.000000	5292698.133713
45.200000	5332476.628552
45.400000	5372513.898046
45.600000	5412811.015803
45.800000	5453371.457392
46.000000	5494196.425145
46.200000	5535288.169592
46.400000	5576649.073392
46.600000	5618281.364031
46.800000	5660186.903750
47.000000	5702367.908246
47.200000	5744826.563368
47.400000	5787565.049295
47.600000	5830585.558696
47.800000	5873890.290262
48.000000	5917481.455601
48.200000	5961361.276386
48.400000	6005531.982084
48.600000	6049995.814858
48.800000	6094755.026378
49.000000	6139811.877430
49.200000	6185168.637951
49.400000	6230827.591217
49.600000	6276791.025169
49.800000	6323061.240384
50.000000	6369640.545213
50.200000	6416531.258178
50.400000	6463735.706498
50.600000	6511256.224584
50.800000	6559095.158578
51.000000	6607254.860937
51.200000	6655737.692477
51.400000	6704546.023575
51.600000	6753682.229667
51.800000	6803148.698382
52.000000	6852947.821249
52.200000	6903081.997150
52.400000	6953553.635426
52.600000	7004365.148423
52.800000	7055518.958343
53.000000	7107017.490336
53.200000	7158863.180146
53.400000	7211058.465007
53.600000	7263605.791755
53.800000	7316507.609337
54.000000	7369766.373719
54.200000	7423384.546223
54.400000	7477364.590456
54.600000	7531708.976128
54.800000	7586420.176647
55.000000	7641500.668060
55.200000	7696952.932097
55.400000	7752779.449184
55.600000	7808982.707600
55.800000	7865565.193448
56.000000	7922529.398200
56.200000	7979877.810318
56.400000	8037612.923426
56.600000	8095737.234329
56.800000	8154253.230605
57.000000	8213163.409976
57.200000	8272470.263825
57.400000	8332176.282650
57.600000	8392283.959613
57.800000	8452795.782293
58.000000	8513714.236446
58.200000	8575041.806429
58.400000	8636780.973129
58.600000	8698934.211089
58.800000	8761503.995248
59.000000	8824492.790881
59.200000	8887903.061715
59.400000	8951737.261847
59.600000	9015997.843497
59.800000	9080687.247489
60.000000	9145807.910184
60.200000	9211362.258289
60.400000	9277352.708900
60.600000	9343781.673173
60.800000	9410651.547073
61.000000	9477964.720073
61.200000	9545723.569189
61.400000	9613930.458454
61.600000	9682587.739777
61.800000	9751697.752723
62.000000	9821262.821451
62.200000	9891285.254694
62.400000	9961767.349056
62.600000	10032711.380204
62.800000	10104119.610517
63.000000	10175994.282839
63.200000	10248337.621866
63.400000	10321151.832419
63.600000	10394439.101330
63.800000	10468201.590160
64.000000	10542441.443169
64.200000	10617160.778631
64.400000	10692361.693908
64.600000	10768046.259403
64.800000	10844216.522715
65.000000	10920874.502368
65.200000	10998022.192872
65.400000	11075661.558459
65.600000	11153794.534262
65.800000	11232423.027414
66.000000	11311548.913068
66.200000	11391174.033009
66.400000	11471300.198009
66.600000	11551929.184911
66.800000	11633062.733469
67.000000	11714702.550594
67.200000	11796850.303280
67.400000	11879507.622005
67.600000	11962676.096981
67.800000	12046357.279144
68.000000	12130552.677830
68.200000	12215263.759192
68.400000	12300491.945636
68.600000	12386238.615481
68.800000	12472505.100858
69.000000	12559292.685969
69.200000	12646602.607215
69.400000	12734436.051946
69.600000	12822794.155560
69.800000	12911678.001407
70.000000	13001088.620852
70.200000	13091026.989719
70.400000	13181494.027457
70.600000	13272490.597656
70.800000	13364017.504230
71.000000	13456075.492036
71.200000	13548665.244926
71.400000	13641787.384108
71.600000	13735442.465706
71.800000	13829630.983128
72.000000	13924353.361423
72.200000	14019609.956480
72.400000	14115401.059144
72.600000	14211726.884134
72.800000	14308587.577504
73.000000	14405983.209055
73.200000	14503913.776162
73.400000	14602379.195322
73.600000	14701379.309991
73.800000	14800913.879084
74.000000	14900982.582469
74.200000	15001585.016723
74.400000	15102720.694389
74.600000	15204389.040004
74.800000	15306589.392456
75.000000	15409321.001646
75.200000	15512583.023355
75.400000	15616374.524236
75.600000	15720694.474751
75.800000	15825541.749261
76.000000	15930915.125436
76.200000	16036813.279210
76.400000	16143234.787912
76.600000	16250178.124534
76.800000	16357641.656766
77.000000	16465623.645339
77.200000	16574122.244731
77.400000	16683135.494236
77.600000	16792661.326160
77.800000	16902697.554696
78.000000	17013241.877710
78.200000	17124291.877514
78.400000	17235845.013467
78.600000	17347898.622671
78.800000	17460449.918148
79.000000	17573495.986748
79.200000	17687033.784690
79.400000	17801060.138050
79.600000	17915571.739835
79.800000	18030565.145606
80.000000	18146036.774755
80.200000	18261982.903989
80.400000	18378399.668646
80.600000	18495283.057494
80.800000	18612628.910910
81.000000	18730432.919228
81.200000	18848690.617829
81.400000	18967397.387778
81.600000	19086548.448129
81.800000	19206138.858561
82.000000	19326163.511933
82.200000	19446617.132973
82.400000	19567494.275916
82.600000	19688789.319502
82.800000	19810496.465404
83.000000	19932609.733835
83.200000	20055122.959860
83.400000	20178029.790587
83.600000	20301323.681712
83.800000	20424997.892321
84.000000	20549045.483424
84.200000	20673459.311235
84.400000	20798232.025442
84.600000	20923356.064111
84.800000	21048823.650714
85.000000	21174626.785512
85.200000	21300757.248376
85.400000	21427206.588277
85.600000	21553966.119588
85.800000	21681026.920538
86.000000	21808379.824734
86.200000	21936015.417414
86.400000	22063924.031030
86.600000	22192095.739043
86.800000	22320520.349811
87.000000	22449187.403796
87.200000	22578086.162810
87.400000	22707205.610009
87.600000	22836534.437805
87.800000	22966061.046572
88.000000	23095773.534135
88.200000	23225659.691732
88.400000	23355706.994046
88.600000	23485902.595687
88.800000	23616233.319434
89.000000	23746685.652750
89.200000	23877245.734010
89.400000	24007899.351764
89.600000	24138631.928759
89.800000	24269428.515796
90.000000	24400273.786554
90.200000	24531152.018855
90.400000	24662047.095464
90.600000	24792942.485160
90.800000	24923821.239166
91.000000	25054665.973673
91.200000	25185458.866627
91.400000	25316181.640075
91.600000	25446815.552076
91.800000	25577341.382259
92.000000	25707739.424399
92.200000	25837989.467860
92.400000	25968070.791224
92.600000	26097962.143478
92.800000	26227641.735938
93.000000	26357087.225146
93.200000	26486275.701732
93.400000	26615183.674772
93.600000	26743787.058008
93.800000	26872061.154901
94.000000	26999980.646096
94.200000	27127519.570544
94.400000	27254651.313875
94.600000	27381348.590426
94.800000	27507583.428932
95.000000	27633327.154634
95.200000	27758550.376345
95.400000	27883222.966138
95.600000	28007314.045336
95.800000	28130791.966511
96.000000	28253624.296588
96.200000	28375777.799839
96.400000	28497218.421017
96.600000	28617911.266475
96.800000	28737820.588781
97.000000	28856909.767200
97.200000	28975141.291551
97.400000	29092476.743951
97.600000	29208876.782436
97.800000	29324301.121122
98.000000	29438708.517023
98.200000	29552056.749132
98.400000	29664302.605142
98.600000	29775401.862052
98.800000	29885309.272228
99.000000	29993978.549393
99.200000	30101362.350776
99.400000	30207412.263316
99.600000	30312078.767480
99.800000	30415311.306567
100.000000	30517058.164586
100.200000	30617266.519780
100.400000	30715882.423119
100.600000	30812850.788740
100.800000	30908115.372405
101.000000	31001618.808220
101.200000	31093302.532319
101.400000	31183106.867762
101.600000	31270970.927781
101.800000	31356832.719402
102.000000	31440629.040082
102.200000	31522295.578201
102.400000	31601766.856808
102.600000	31678976.256206
102.800000	31753856.065641
103.000000	31826337.439568
103.200000	31896350.451164
103.400000	31963824.119384
103.600000	32028686.413106
103.800000	32090864.289903
104.000000	32150283.730674
104.200000	32206869.769722
104.400000	32260546.549778
104.600000	32311237.346203
104.800000	32358864.632713
105.000000	32403350.133651
105.200000	32444614.868244
105.400000	32482579.235088
105.600000	32517163.093844
105.800000	32548285.786191
106.000000	32575866.279664
106.200000	32599823.206518
106.400000	32620074.991585
106.600000	32636539.932221
106.800000	32649136.304498
107.000000	32657782.476878
107.200000	32662397.034707
107.400000	32662898.894742
107.600000	32659207.438828
107.800000	32651242.652533
108.000000	32638925.268264
108.200000	32622176.913615
108.400000	32600920.272644
108.600000	32575079.229416
108.800000	32544579.077584
109.000000	32509346.647529
109.200000	32469310.513629
109.400000	32424401.173398
109.600000	32374551.227928
109.800000	32319695.605824
110.000000	32259771.720909
110.200000	32194719.702496
110.400000	32124482.589498
110.600000	32049006.550923
110.800000	31968241.072654
111.000000	31882139.182791
111.200000	31790657.674771
111.400000	31693757.285914
111.600000	31591402.927479
111.800000	31483563.899437
112.000000	31370214.070103
112.200000	31251332.085537
112.400000	31126901.582019
112.600000	30996911.342813
112.800000	30861355.490854
113.000000	30720233.681883
113.200000	30573551.227601
113.400000	30421319.276565
113.600000	30263554.951896
113.800000	30100281.452676
114.000000	29931528.208296
114.200000	29757330.936483
114.400000	29577731.748430
114.600000	29392779.210070
114.800000	29202528.376469
115.000000	29007040.842170
115.200000	28806384.721736
115.400000	28600634.665241
115.600000	28389871.803354
115.800000	28174183.708564
116.000000	27953664.310071
116.200000	27728413.800708
116.400000	27498538.517255
116.600000	27264150.797074
116.800000	27025368.815347
117.000000	26782316.402023
117.200000	26535122.833584
117.400000	26283922.606733
117.600000	26028855.194836
117.800000	25770064.779762
118.000000	25507699.968542
118.200000	25241913.498631
118.400000	24972861.913992
118.600000	24700705.243132
118.800000	24425606.649288
119.000000	24147732.067797
119.200000	23867249.796495
119.400000	23584330.014693
119.600000	23299147.511238
119.800000	23011867.262741
120.000000	22722682.301688
120.200000	22431732.659751
120.400000	22139237.798478
120.600000	21845343.108741
120.800000	21550220.095884
121.000000	21254060.616722
121.200000	20957025.640548
121.400000	20659284.508258
121.600000	20361008.618352
121.800000	20062357.181859
122.000000	19763503.325335
122.200000	19464597.690384
122.400000	19165805.524240
122.600000	18867265.229696
122.800000	18569142.011741
123.000000	18271566.365097
123.200000	17974694.740088
123.400000	17678653.856864
123.600000	17383563.513857
123.800000	17089581.735980
124.000000	16796798.028572
124.200000	16505343.671324
124.400000	16215334.212103
124.600000	15926867.263902
124.800000	15640044.117265
125.000000	15354968.929921
125.200000	15071711.258184
125.400000	14790388.542952
125.600000	14511047.061938
125.800000	14233780.120657
126.000000	13958647.998203
126.200000	13685714.692780
126.400000	13415035.981147
126.600000	13146685.482007
126.800000	12880664.705001
127.000000	12617060.086661
127.200000	12355896.550486
127.400000	12097185.437548
127.600000	11840990.382827
127.800000	11587304.202687
128.000000	11336165.535046
128.200000	11087571.194718
128.400000	10841554.382338
128.600000	10598100.358945
128.800000	10357224.058864
129.000000	10118914.961983
129.200000	9883184.663178
129.400000	9650002.427672
129.600000	9419377.700685
129.800000	9191281.030215
130.000000	8965702.577363
130.200000	8742621.287899
130.400000	8522012.646342
130.600000	8303849.164427
130.800000	8088103.278253
131.000000	7874753.187258
131.200000	7663750.930383
131.400000	7455074.999636
131.600000	7248678.018679
131.800000	7044546.928969
132.000000	6842590.729601
132.200000	6642822.416760
132.400000	6445177.629633
132.600000	6249596.075389
132.800000	6056059.579417
133.000000	5864501.630143
133.200000	5674884.164377
133.400000	5487155.991830
133.600000	5301264.967179
133.800000	5117163.293867
134.000000	4934800.352632
134.200000	4754123.868327
134.400000	4575071.775511
134.600000	4397608.648443
134.800000	4221667.863819
135.000000	4047197.371790
135.200000	3874143.703977
135.400000	3702451.865652
135.600000	3532069.847217
135.800000	3362934.245252
136.000000	3194997.269927
136.200000	3028200.363190
136.400000	2862482.951858
136.600000	2697798.168501
136.800000	2534078.611873
137.000000	2371276.035936
137.200000	2209324.259045
137.400000	2048170.229780
137.600000	1887751.948763
137.800000	1728013.655277
138.000000	1568907.814034
138.200000	1410398.997076
138.400000	1252470.294607
138.600000	1095108.382513
138.800000	938169.111826
139.000000	780920.277417
139.200000	622108.563225
139.400000	470443.782309
139.600000	310881.920179
139.800000	156271.398453
140.000000	-0.000000
