# Profil de Te au temps 1.200000000000016e-11 
# simu : /Volumes/MERCURE/JOBS/tanh_50mic_Zeq10_5e19_B0/GNU/Te@y-c.set
# col 0 : abscisse (um)
# col 1 : Te (keV)
0.500000	0.997800
1.500000	0.997798
2.500000	0.997796
3.500000	0.997792
4.500000	0.997788
5.500000	0.997782
6.500000	0.997775
7.500000	0.997766
8.500000	0.997757
9.500000	0.997746
10.500000	0.997734
11.500000	0.997721
12.500000	0.997707
13.500000	0.997692
14.500000	0.997675
15.500000	0.997657
16.500000	0.997638
17.500000	0.997618
18.500000	0.997596
19.500000	0.997573
20.500000	0.997550
21.500000	0.997524
22.500000	0.997498
23.500000	0.997470
24.500000	0.997442
25.500000	0.997411
26.500000	0.997380
27.500000	0.997348
28.500000	0.997314
29.500000	0.997279
30.500000	0.997242
31.500000	0.997205
32.500000	0.997166
33.500000	0.997126
34.500000	0.997084
35.500000	0.997042
36.500000	0.996998
37.500000	0.996952
38.500000	0.996906
39.500000	0.996858
40.500000	0.996808
41.500000	0.996758
42.500000	0.996706
43.500000	0.996653
44.500000	0.996598
45.500000	0.996542
46.500000	0.996485
47.500000	0.996426
48.500000	0.996367
49.500000	0.996305
50.500000	0.996242
51.500000	0.996178
52.500000	0.996113
53.500000	0.996046
54.500000	0.995977
55.500000	0.995908
56.500000	0.995837
57.500000	0.995764
58.500000	0.995690
59.500000	0.995614
60.500000	0.995537
61.500000	0.995459
62.500000	0.995379
63.500000	0.995298
64.500000	0.995215
65.500000	0.995131
66.500000	0.995045
67.500000	0.994957
68.500000	0.994869
69.500000	0.994778
70.500000	0.994686
71.500000	0.994593
72.500000	0.994498
73.500000	0.994401
74.500000	0.994303
75.500000	0.994204
76.500000	0.994103
77.500000	0.994000
78.500000	0.993895
79.500000	0.993789
80.500000	0.993682
81.500000	0.993573
82.500000	0.993462
83.500000	0.993350
84.500000	0.993235
85.500000	0.993120
86.500000	0.993003
87.500000	0.992884
88.500000	0.992763
89.500000	0.992641
90.500000	0.992517
91.500000	0.992391
92.500000	0.992264
93.500000	0.992135
94.500000	0.992004
95.500000	0.991872
96.500000	0.991738
97.500000	0.991602
98.500000	0.991465
99.500000	0.991326
100.500000	0.991185
101.500000	0.991042
102.500000	0.990898
103.500000	0.990752
104.500000	0.990604
105.500000	0.990454
106.500000	0.990303
107.500000	0.990150
108.500000	0.989995
109.500000	0.989839
110.500000	0.989680
111.500000	0.989520
112.500000	0.989358
113.500000	0.989195
114.500000	0.989029
115.500000	0.988862
116.500000	0.988693
117.500000	0.988522
118.500000	0.988350
119.500000	0.988175
120.500000	0.987999
121.500000	0.987821
122.500000	0.987641
123.500000	0.987460
124.500000	0.987277
125.500000	0.987091
126.500000	0.986904
127.500000	0.986716
128.500000	0.986525
129.500000	0.986333
130.500000	0.986138
131.500000	0.985942
132.500000	0.985745
133.500000	0.985545
134.500000	0.985344
135.500000	0.985140
136.500000	0.984935
137.500000	0.984728
138.500000	0.984520
139.500000	0.984309
140.500000	0.984097
141.500000	0.983883
142.500000	0.983667
143.500000	0.983449
144.500000	0.983229
145.500000	0.983008
146.500000	0.982785
147.500000	0.982560
148.500000	0.982333
149.500000	0.982104
150.500000	0.981874
151.500000	0.981642
152.500000	0.981408
153.500000	0.981172
154.500000	0.980934
155.500000	0.980695
156.500000	0.980454
157.500000	0.980211
158.500000	0.979966
159.500000	0.979720
160.500000	0.979471
161.500000	0.979221
162.500000	0.978969
163.500000	0.978715
164.500000	0.978460
165.500000	0.978203
166.500000	0.977944
167.500000	0.977683
168.500000	0.977420
169.500000	0.977156
170.500000	0.976890
171.500000	0.976622
172.500000	0.976353
173.500000	0.976081
174.500000	0.975808
175.500000	0.975533
176.500000	0.975257
177.500000	0.974978
178.500000	0.974698
179.500000	0.974416
180.500000	0.974132
181.500000	0.973847
182.500000	0.973560
183.500000	0.973271
184.500000	0.972980
185.500000	0.972688
186.500000	0.972394
187.500000	0.972098
188.500000	0.971800
189.500000	0.971501
190.500000	0.971200
191.500000	0.970897
192.500000	0.970593
193.500000	0.970286
194.500000	0.969978
195.500000	0.969668
196.500000	0.969357
197.500000	0.969044
198.500000	0.968729
199.500000	0.968412
200.500000	0.968093
201.500000	0.967773
202.500000	0.967451
203.500000	0.967127
204.500000	0.966801
205.500000	0.966474
206.500000	0.966145
207.500000	0.965814
208.500000	0.965481
209.500000	0.965147
210.500000	0.964811
211.500000	0.964472
212.500000	0.964133
213.500000	0.963791
214.500000	0.963447
215.500000	0.963102
216.500000	0.962755
217.500000	0.962406
218.500000	0.962055
219.500000	0.961702
220.500000	0.961348
221.500000	0.960991
222.500000	0.960633
223.500000	0.960273
224.500000	0.959911
225.500000	0.959546
226.500000	0.959180
227.500000	0.958812
228.500000	0.958443
229.500000	0.958071
230.500000	0.957697
231.500000	0.957321
232.500000	0.956943
233.500000	0.956563
234.500000	0.956181
235.500000	0.955797
236.500000	0.955410
237.500000	0.955022
238.500000	0.954632
239.500000	0.954239
240.500000	0.953844
241.500000	0.953447
242.500000	0.953048
243.500000	0.952646
244.500000	0.952243
245.500000	0.951837
246.500000	0.951428
247.500000	0.951017
248.500000	0.950604
249.500000	0.950189
250.500000	0.949771
251.500000	0.949350
252.500000	0.948927
253.500000	0.948502
254.500000	0.948074
255.500000	0.947643
256.500000	0.947209
257.500000	0.946773
258.500000	0.946335
259.500000	0.945893
260.500000	0.945449
261.500000	0.945002
262.500000	0.944551
263.500000	0.944098
264.500000	0.943642
265.500000	0.943183
266.500000	0.942721
267.500000	0.942256
268.500000	0.941788
269.500000	0.941316
270.500000	0.940841
271.500000	0.940363
272.500000	0.939881
273.500000	0.939396
274.500000	0.938908
275.500000	0.938416
276.500000	0.937920
277.500000	0.937421
278.500000	0.936918
279.500000	0.936411
280.500000	0.935900
281.500000	0.935385
282.500000	0.934866
283.500000	0.934343
284.500000	0.933816
285.500000	0.933284
286.500000	0.932749
287.500000	0.932209
288.500000	0.931664
289.500000	0.931115
290.500000	0.930561
291.500000	0.930002
292.500000	0.929439
293.500000	0.928870
294.500000	0.928297
295.500000	0.927718
296.500000	0.927134
297.500000	0.926545
298.500000	0.925951
299.500000	0.925350
300.500000	0.924745
301.500000	0.924133
302.500000	0.923516
303.500000	0.922892
304.500000	0.922263
305.500000	0.921627
306.500000	0.920985
307.500000	0.920337
308.500000	0.919681
309.500000	0.919020
310.500000	0.918351
311.500000	0.917675
312.500000	0.916992
313.500000	0.916302
314.500000	0.915605
315.500000	0.914900
316.500000	0.914187
317.500000	0.913466
318.500000	0.912738
319.500000	0.912001
320.500000	0.911256
321.500000	0.910502
322.500000	0.909740
323.500000	0.908969
324.500000	0.908189
325.500000	0.907400
326.500000	0.906601
327.500000	0.905793
328.500000	0.904975
329.500000	0.904147
330.500000	0.903309
331.500000	0.902461
332.500000	0.901602
333.500000	0.900733
334.500000	0.899852
335.500000	0.898961
336.500000	0.898058
337.500000	0.897144
338.500000	0.896218
339.500000	0.895280
340.500000	0.894329
341.500000	0.893367
342.500000	0.892391
343.500000	0.891403
344.500000	0.890401
345.500000	0.889387
346.500000	0.888358
347.500000	0.887316
348.500000	0.886259
349.500000	0.885188
350.500000	0.884102
351.500000	0.883002
352.500000	0.881886
353.500000	0.880754
354.500000	0.879607
355.500000	0.878444
356.500000	0.877264
357.500000	0.876068
358.500000	0.874855
359.500000	0.873624
360.500000	0.872376
361.500000	0.871110
362.500000	0.869826
363.500000	0.868524
364.500000	0.867202
365.500000	0.865862
366.500000	0.864502
367.500000	0.863122
368.500000	0.861722
369.500000	0.860301
370.500000	0.858860
371.500000	0.857398
372.500000	0.855914
373.500000	0.854408
374.500000	0.852880
375.500000	0.851329
376.500000	0.849755
377.500000	0.848158
378.500000	0.846537
379.500000	0.844892
380.500000	0.843223
381.500000	0.841529
382.500000	0.839809
383.500000	0.838064
384.500000	0.836293
385.500000	0.834496
386.500000	0.832671
387.500000	0.830820
388.500000	0.828941
389.500000	0.827034
390.500000	0.825098
391.500000	0.823134
392.500000	0.821141
393.500000	0.819118
394.500000	0.817065
395.500000	0.814981
396.500000	0.812867
397.500000	0.810722
398.500000	0.808545
399.500000	0.806337
400.500000	0.804096
401.500000	0.801822
402.500000	0.799515
403.500000	0.797175
404.500000	0.794801
405.500000	0.792392
406.500000	0.789950
407.500000	0.787472
408.500000	0.784959
409.500000	0.782410
410.500000	0.779825
411.500000	0.777205
412.500000	0.774547
413.500000	0.771853
414.500000	0.769121
415.500000	0.766352
416.500000	0.763545
417.500000	0.760701
418.500000	0.757818
419.500000	0.754896
420.500000	0.751936
421.500000	0.748937
422.500000	0.745898
423.500000	0.742821
424.500000	0.739704
425.500000	0.736547
426.500000	0.733351
427.500000	0.730115
428.500000	0.726840
429.500000	0.723524
430.500000	0.720168
431.500000	0.716773
432.500000	0.713337
433.500000	0.709862
434.500000	0.706346
435.500000	0.702791
436.500000	0.699197
437.500000	0.695562
438.500000	0.691889
439.500000	0.688176
440.500000	0.684425
441.500000	0.680634
442.500000	0.676806
443.500000	0.672939
444.500000	0.669035
445.500000	0.665093
446.500000	0.661115
447.500000	0.657100
448.500000	0.653049
449.500000	0.648962
450.500000	0.644840
451.500000	0.640684
452.500000	0.636495
453.500000	0.632272
454.500000	0.628016
455.500000	0.623729
456.500000	0.619411
457.500000	0.615063
458.500000	0.610685
459.500000	0.606278
460.500000	0.601844
461.500000	0.597383
462.500000	0.592896
463.500000	0.588384
464.500000	0.583848
465.500000	0.579289
466.500000	0.574709
467.500000	0.570107
468.500000	0.565487
469.500000	0.560847
470.500000	0.556191
471.500000	0.551518
472.500000	0.546831
473.500000	0.542130
474.500000	0.537417
475.500000	0.532693
476.500000	0.527960
477.500000	0.523219
478.500000	0.518470
479.500000	0.513717
480.500000	0.508960
481.500000	0.504200
482.500000	0.499440
483.500000	0.494680
484.500000	0.489923
485.500000	0.485169
486.500000	0.480420
487.500000	0.475679
488.500000	0.470946
489.500000	0.466222
490.500000	0.461511
491.500000	0.456813
492.500000	0.452130
493.500000	0.447464
494.500000	0.442815
495.500000	0.438187
496.500000	0.433580
497.500000	0.428996
498.500000	0.424437
499.500000	0.419904
500.500000	0.415399
501.500000	0.410924
502.500000	0.406479
503.500000	0.402067
504.500000	0.397690
505.500000	0.393347
506.500000	0.389042
507.500000	0.384776
508.500000	0.380549
509.500000	0.376364
510.500000	0.372221
511.500000	0.368122
512.500000	0.364067
513.500000	0.360059
514.500000	0.356099
515.500000	0.352187
516.500000	0.348324
517.500000	0.344511
518.500000	0.340750
519.500000	0.337040
520.500000	0.333384
521.500000	0.329781
522.500000	0.326231
523.500000	0.322737
524.500000	0.319298
525.500000	0.315914
526.500000	0.312586
527.500000	0.309314
528.500000	0.306099
529.500000	0.302940
530.500000	0.299838
531.500000	0.296792
532.500000	0.293803
533.500000	0.290871
534.500000	0.287995
535.500000	0.285174
536.500000	0.282410
537.500000	0.279701
538.500000	0.277047
539.500000	0.274447
540.500000	0.271902
541.500000	0.269410
542.500000	0.266972
543.500000	0.264585
544.500000	0.262251
545.500000	0.259967
546.500000	0.257734
547.500000	0.255551
548.500000	0.253416
549.500000	0.251330
550.500000	0.249291
551.500000	0.247298
552.500000	0.245351
553.500000	0.243449
554.500000	0.241591
555.500000	0.239776
556.500000	0.238004
557.500000	0.236272
558.500000	0.234582
559.500000	0.232931
560.500000	0.231319
561.500000	0.229745
562.500000	0.228208
563.500000	0.226708
564.500000	0.225242
565.500000	0.223812
566.500000	0.222415
567.500000	0.221052
568.500000	0.219720
569.500000	0.218420
570.500000	0.217151
571.500000	0.215911
572.500000	0.214701
573.500000	0.213519
574.500000	0.212364
575.500000	0.211237
576.500000	0.210136
577.500000	0.209060
578.500000	0.208010
579.500000	0.206983
580.500000	0.205980
581.500000	0.205001
582.500000	0.204043
583.500000	0.203108
584.500000	0.202194
585.500000	0.201300
586.500000	0.200427
587.500000	0.199573
588.500000	0.198738
589.500000	0.197922
590.500000	0.197124
591.500000	0.196343
592.500000	0.195580
593.500000	0.194833
594.500000	0.194103
595.500000	0.193388
596.500000	0.192689
597.500000	0.192004
598.500000	0.191334
599.500000	0.190679
600.500000	0.190037
601.500000	0.189409
602.500000	0.188794
603.500000	0.188191
604.500000	0.187601
605.500000	0.187024
606.500000	0.186457
607.500000	0.185903
608.500000	0.185360
609.500000	0.184827
610.500000	0.184305
611.500000	0.183794
612.500000	0.183293
613.500000	0.182801
614.500000	0.182319
615.500000	0.181847
616.500000	0.181384
617.500000	0.180929
618.500000	0.180483
619.500000	0.180046
620.500000	0.179617
621.500000	0.179196
622.500000	0.178783
623.500000	0.178378
624.500000	0.177980
625.500000	0.177590
626.500000	0.177206
627.500000	0.176830
628.500000	0.176461
629.500000	0.176098
630.500000	0.175742
631.500000	0.175393
632.500000	0.175049
633.500000	0.174712
634.500000	0.174381
635.500000	0.174056
636.500000	0.173737
637.500000	0.173423
638.500000	0.173115
639.500000	0.172813
640.500000	0.172516
641.500000	0.172224
642.500000	0.171938
643.500000	0.171657
644.500000	0.171381
645.500000	0.171110
646.500000	0.170844
647.500000	0.170583
648.500000	0.170327
649.500000	0.170075
650.500000	0.169829
651.500000	0.169587
652.500000	0.169350
653.500000	0.169117
654.500000	0.168890
655.500000	0.168667
656.500000	0.168448
657.500000	0.168234
658.500000	0.168025
659.500000	0.167821
660.500000	0.167620
661.500000	0.167425
662.500000	0.167234
663.500000	0.167048
664.500000	0.166866
665.500000	0.166689
666.500000	0.166517
667.500000	0.166349
668.500000	0.166186
669.500000	0.166027
670.500000	0.165873
671.500000	0.165724
672.500000	0.165580
673.500000	0.165440
674.500000	0.165306
675.500000	0.165176
676.500000	0.165051
677.500000	0.164931
678.500000	0.164815
679.500000	0.164705
680.500000	0.164600
681.500000	0.164500
682.500000	0.164404
683.500000	0.164314
684.500000	0.164229
685.500000	0.164149
686.500000	0.164075
687.500000	0.164005
688.500000	0.163941
689.500000	0.163882
690.500000	0.163828
691.500000	0.163780
692.500000	0.163737
693.500000	0.163699
694.500000	0.163666
695.500000	0.163639
696.500000	0.163618
697.500000	0.163601
698.500000	0.163591
699.500000	0.163585
