# Profil de ElecX au temps 1.200000000000016e-11 
# simu : /Volumes/MERCURE/JOBS/tanh_50mic_Zeq10_B0/GNU/ElecX@y-c.set
# col 0 : abscisse (um)
# col 1 : ElecX (V/m)
0.000000	0.000000
1.000000	1918.431163
2.000000	1058.796835
3.000000	1593.299930
4.000000	2842.619664
5.000000	3461.714721
6.000000	4138.070849
7.000000	4825.313197
8.000000	5514.230640
9.000000	6203.793665
10.000000	6893.886937
11.000000	7584.524211
12.000000	8275.743040
13.000000	8967.585856
14.000000	9660.097182
15.000000	10353.321997
16.000000	11047.306641
17.000000	11742.097476
18.000000	12437.741295
19.000000	13134.285492
20.000000	13831.777350
21.000000	14530.264262
22.000000	15229.794164
23.000000	15930.414435
24.000000	16632.172853
25.000000	17335.117320
26.000000	18039.295328
27.000000	18744.754900
28.000000	19451.543550
29.000000	20159.709274
30.000000	20869.299663
31.000000	21580.362700
32.000000	22292.946065
33.000000	23007.097846
34.000000	23722.865658
35.000000	24440.297850
36.000000	25159.442434
37.000000	25880.347497
38.000000	26603.061382
39.000000	27327.632626
40.000000	28054.109939
41.000000	28782.542084
42.000000	29512.978168
43.000000	30245.467403
44.000000	30980.059567
45.000000	31716.804493
46.000000	32455.752353
47.000000	33196.953843
48.000000	33940.460016
49.000000	34686.322270
50.000000	35434.592663
51.000000	36185.323518
52.000000	36938.567949
53.000000	37694.379611
54.000000	38452.812611
55.000000	39213.922108
56.000000	39977.763485
57.000000	40744.393384
58.000000	41513.868876
59.000000	42286.248190
60.000000	43061.590196
61.000000	43839.954709
62.000000	44621.403096
63.000000	45405.996795
64.000000	46193.799241
65.000000	46984.874468
66.000000	47779.288035
67.000000	48577.106448
68.000000	49378.397731
69.000000	50183.231221
70.000000	50991.677514
71.000000	51803.808951
72.000000	52619.699012
73.000000	53439.423130
74.000000	54263.057899
75.000000	55090.682152
76.000000	55922.375854
77.000000	56758.221206
78.000000	57598.302031
79.000000	58442.703957
80.000000	59291.514764
81.000000	60144.824161
82.000000	61002.723745
83.000000	61865.307496
84.000000	62732.671171
85.000000	63604.913189
86.000000	64482.133936
87.000000	65364.436063
88.000000	66251.924851
89.000000	67144.707744
90.000000	68042.894873
91.000000	68946.598811
92.000000	69855.934545
93.000000	70771.019991
94.000000	71691.975457
95.000000	72618.924292
96.000000	73551.992353
97.000000	74491.308441
98.000000	75437.004079
99.000000	76389.214199
100.000000	77348.076087
101.000000	78313.730409
102.000000	79286.321004
103.000000	80265.994391
104.000000	81252.900824
105.000000	82247.193338
106.000000	83249.028410
107.000000	84258.565812
108.000000	85275.968711
109.000000	86301.403622
110.000000	87335.040558
111.000000	88377.052913
112.000000	89427.617830
113.000000	90486.915966
114.000000	91555.131413
115.000000	92632.452248
116.000000	93719.070209
117.000000	94815.180675
118.000000	95920.983015
119.000000	97036.680332
120.000000	98162.479906
121.000000	99298.592661
122.000000	100445.233832
123.000000	101602.622608
124.000000	102770.982221
125.000000	103950.540434
126.000000	105141.528853
127.000000	106344.183583
128.000000	107558.745088
129.000000	108785.458219
130.000000	110024.572160
131.000000	111276.341116
132.000000	112541.022983
133.000000	113818.881392
134.000000	115110.183944
135.000000	116415.203251
136.000000	117734.216842
137.000000	119067.507262
138.000000	120415.361716
139.000000	121778.072956
140.000000	123155.938565
141.000000	124549.261344
142.000000	125958.349878
143.000000	127383.517505
144.000000	128825.083623
145.000000	130283.372826
146.000000	131758.715642
147.000000	133251.448077
148.000000	134761.912666
149.000000	136290.457056
150.000000	137837.435528
151.000000	139403.208380
152.000000	140988.142520
153.000000	142592.610684
154.000000	144216.992680
155.000000	145861.674620
156.000000	147527.049710
157.000000	149213.517879
158.000000	150921.486075
159.000000	152651.368574
160.000000	154403.586928
161.000000	156178.570088
162.000000	157976.754702
163.000000	159798.585321
164.000000	161644.514175
165.000000	163515.001762
166.000000	165410.517002
167.000000	167331.536879
168.000000	169278.547332
169.000000	171252.043060
170.000000	173252.527702
171.000000	175280.514124
172.000000	177336.524627
173.000000	179421.091107
174.000000	181534.755069
175.000000	183678.068634
176.000000	185851.593640
177.000000	188055.902520
178.000000	190291.578661
179.000000	192559.216284
180.000000	194859.420831
181.000000	197192.809247
182.000000	199560.010244
183.000000	201961.664493
184.000000	204398.425264
185.000000	206870.957804
186.000000	209379.940828
187.000000	211926.065938
188.000000	214510.038231
189.000000	217132.576684
190.000000	219794.414452
191.000000	222496.298802
192.000000	225238.992240
193.000000	228023.272175
194.000000	230849.931292
195.000000	233719.778706
196.000000	236633.639172
197.000000	239592.354499
198.000000	242596.783046
199.000000	245647.801102
200.000000	248746.302292
201.000000	251893.198724
202.000000	255089.421130
203.000000	258335.919324
204.000000	261633.662576
205.000000	264983.640283
206.000000	268386.862153
207.000000	271844.359067
208.000000	275357.183120
209.000000	278926.408435
210.000000	282553.131643
211.000000	286238.472232
212.000000	289983.573333
213.000000	293789.601904
214.000000	297657.749706
215.000000	301589.233701
216.000000	305585.296492
217.000000	309647.206913
218.000000	313776.261111
219.000000	317973.782729
220.000000	322241.123142
221.000000	326579.663271
222.000000	330990.813232
223.000000	335476.013237
224.000000	340036.734534
225.000000	344674.480063
226.000000	349390.784628
227.000000	354187.216661
228.000000	359065.377999
229.000000	364026.904962
230.000000	369073.469422
231.000000	374206.779311
232.000000	379428.579348
233.000000	384740.651984
234.000000	390144.818552
235.000000	395642.939509
236.000000	401236.915611
237.000000	406928.689161
238.000000	412720.244243
239.000000	418613.608073
240.000000	424610.851852
241.000000	430714.091756
242.000000	436925.489936
243.000000	443247.255367
244.000000	449681.644861
245.000000	456230.964460
246.000000	462897.570145
247.000000	469683.868778
248.000000	476592.319723
249.000000	483625.435409
250.000000	490785.782920
251.000000	498075.984739
252.000000	505498.720028
253.000000	513056.726358
254.000000	520752.799630
255.000000	528589.797060
256.000000	536570.636769
257.000000	544698.300323
258.000000	552975.832903
259.000000	561406.345779
260.000000	569993.016594
261.000000	578739.091462
262.000000	587647.885906
263.000000	596722.786522
264.000000	605967.252069
265.000000	615384.815297
266.000000	624979.083845
267.000000	634753.742707
268.000000	644712.554207
269.000000	654859.361191
270.000000	665198.087030
271.000000	675732.738290
272.000000	686467.405804
273.000000	697406.265994
274.000000	708553.583279
275.000000	719913.710691
276.000000	731491.092289
277.000000	743290.264374
278.000000	755315.857275
279.000000	767572.597218
280.000000	780065.307358
281.000000	792798.910172
282.000000	805778.429219
283.000000	819008.989860
284.000000	832495.822245
285.000000	846244.262178
286.000000	860259.753268
287.000000	874547.848144
288.000000	889114.211386
289.000000	903964.619716
290.000000	919104.964782
291.000000	934541.254878
292.000000	950279.616170
293.000000	966326.294687
294.000000	982687.658445
295.000000	999370.198239
296.000000	1016380.530705
297.000000	1033725.398586
298.000000	1051411.673531
299.000000	1069446.357160
300.000000	1087836.582917
301.000000	1106589.617823
302.000000	1125712.863760
303.000000	1145213.859335
304.000000	1165100.281519
305.000000	1185379.946531
306.000000	1206060.812226
307.000000	1227150.978663
308.000000	1248658.690375
309.000000	1270592.336765
310.000000	1292960.454017
311.000000	1315771.726377
312.000000	1339034.986725
313.000000	1362759.218527
314.000000	1386953.555937
315.000000	1411627.285665
316.000000	1436789.847187
317.000000	1462450.833727
318.000000	1488619.993378
319.000000	1515307.228895
320.000000	1542522.598914
321.000000	1570276.318083
322.000000	1598578.757522
323.000000	1627440.444257
324.000000	1656872.062651
325.000000	1686884.452986
326.000000	1717488.611808
327.000000	1748695.691739
328.000000	1780517.000351
329.000000	1812964.000327
330.000000	1846048.307613
331.000000	1879781.691344
332.000000	1914176.071963
333.000000	1949243.519798
334.000000	1984996.254282
335.000000	2021446.640976
336.000000	2058607.190405
337.000000	2096490.555517
338.000000	2135109.528936
339.000000	2174477.040699
340.000000	2214606.154872
341.000000	2255510.066593
342.000000	2297202.098291
343.000000	2339695.695938
344.000000	2383004.425110
345.000000	2427141.966412
346.000000	2472122.110713
347.000000	2517958.754527
348.000000	2564665.893860
349.000000	2612257.619270
350.000000	2660748.109358
351.000000	2710151.624345
352.000000	2760482.499572
353.000000	2811755.138071
354.000000	2863984.002579
355.000000	2917183.608529
356.000000	2971368.514504
357.000000	3026553.314202
358.000000	3082752.626810
359.000000	3139981.087154
360.000000	3198253.335784
361.000000	3257584.008005
362.000000	3317987.722787
363.000000	3379479.071664
364.000000	3442072.605058
365.000000	3505782.821662
366.000000	3570624.153569
367.000000	3636610.953215
368.000000	3703757.479221
369.000000	3772077.881113
370.000000	3841586.184314
371.000000	3912296.274061
372.000000	3984221.878564
373.000000	4057376.552309
374.000000	4131773.658148
375.000000	4207426.348533
376.000000	4284347.547287
377.000000	4362549.929174
378.000000	4442045.900798
379.000000	4522847.577934
380.000000	4604966.766180
381.000000	4688414.936836
382.000000	4773203.205409
383.000000	4859342.307140
384.000000	4946842.573618
385.000000	5035713.907022
386.000000	5125965.755412
387.000000	5217607.085648
388.000000	5310646.356990
389.000000	5405091.492847
390.000000	5500949.852809
391.000000	5598228.203040
392.000000	5696932.686526
393.000000	5797068.792262
394.000000	5898641.323980
395.000000	6001654.367534
396.000000	6106111.258092
397.000000	6212014.546077
398.000000	6319365.962563
399.000000	6428166.383592
400.000000	6538415.793897
401.000000	6650113.249222
402.000000	6763256.838382
403.000000	6877843.644151
404.000000	6993869.702176
405.000000	7111329.961292
406.000000	7230218.239626
407.000000	7350527.182536
408.000000	7472248.217239
409.000000	7595371.507542
410.000000	7719885.906992
411.000000	7845778.910325
412.000000	7973036.603849
413.000000	8101643.614918
414.000000	8231583.058672
415.000000	8362836.484314
416.000000	8495383.819355
417.000000	8629203.311397
418.000000	8764271.469168
419.000000	8900563.000774
420.000000	9038050.750216
421.000000	9176705.631150
422.000000	9316496.558967
423.000000	9457390.379782
424.000000	9599351.797333
425.000000	9742343.296444
426.000000	9886325.063748
427.000000	10031254.905575
428.000000	10177088.162229
429.000000	10323777.618824
430.000000	10471273.412354
431.000000	10619522.935184
432.000000	10768470.734566
433.000000	10918058.407558
434.000000	11068224.491619
435.000000	11218904.351538
436.000000	11370030.060793
437.000000	11521530.277792
438.000000	11673330.118581
439.000000	11825351.023019
440.000000	11977510.617288
441.000000	12129722.569448
442.000000	12281896.442265
443.000000	12433937.538294
444.000000	12585746.742494
445.000000	12737220.358599
446.000000	12888249.941220
447.000000	13038722.124145
448.000000	13188518.445083
449.000000	13337515.166673
450.000000	13485583.095560
451.000000	13632587.399815
452.000000	13778387.426280
453.000000	13922836.517454
454.000000	14065781.831905
455.000000	14207064.167224
456.000000	14346517.789970
457.000000	14483970.271583
458.000000	14619242.336675
459.000000	14752147.722617
460.000000	14882493.056901
461.000000	15010077.752922
462.000000	15134693.930355
463.000000	15256126.363026
464.000000	15374152.460216
465.000000	15488542.284773
466.000000	15599058.616362
467.000000	15705457.062995
468.000000	15807486.230377
469.000000	15904887.953439
470.000000	15997397.599394
471.000000	16084744.448573
472.000000	16166652.163073
473.000000	16242839.348924
474.000000	16313020.221986
475.000000	16376905.385556
476.000000	16434202.727198
477.000000	16484618.442743
478.000000	16527858.194845
479.000000	16563628.412072
480.000000	16591637.733080
481.000000	16611598.600159
482.000000	16623229.003134
483.000000	16626254.373203
484.000000	16620409.623570
485.000000	16605441.330612
486.000000	16581110.045004
487.000000	16547192.720963
488.000000	16503485.244257
489.000000	16449805.037381
490.000000	16385993.715931
491.000000	16311919.763623
492.000000	16227481.190603
493.000000	16132608.134502
494.000000	16027265.359401
495.000000	15911454.605165
496.000000	15785216.736344
497.000000	15648633.638203
498.000000	15501829.808001
499.000000	15344973.589022
500.000000	15178277.998885
501.000000	15002001.107612
502.000000	14816445.925706
503.000000	14621959.772677
504.000000	14418933.103179
505.000000	14207797.780179
506.000000	13989024.796188
507.000000	13763121.456729
508.000000	13530628.052116
509.000000	13292114.058227
510.000000	13048173.918677
511.000000	12799422.471982
512.000000	12546490.098317
513.000000	12290017.666681
514.000000	12030651.370359
515.000000	11769037.541303
516.000000	11505817.532634
517.000000	11241622.758893
518.000000	10977069.975290
519.000000	10712756.872878
520.000000	10449258.053731
521.000000	10187121.442230
522.000000	9926865.173502
523.000000	9668974.989124
524.000000	9413902.155797
525.000000	9162061.910249
526.000000	8913832.422955
527.000000	8669554.259565
528.000000	8429530.313640
529.000000	8194026.171766
530.000000	7963270.871378
531.000000	7737458.001925
532.000000	7516747.102686
533.000000	7301265.304677
534.000000	7091109.169151
535.000000	6886346.672586
536.000000	6687019.294600
537.000000	6493144.165394
538.000000	6304716.235732
539.000000	6121710.436056
540.000000	5944083.795412
541.000000	5771777.496211
542.000000	5604718.844988
543.000000	5442823.144169
544.000000	5285995.452415
545.000000	5134132.226142
546.000000	4987122.837830
547.000000	4844850.968186
548.000000	4707195.873270
549.000000	4574033.528888
550.000000	4445237.655731
551.000000	4320680.630781
552.000000	4200234.291105
553.000000	4083770.636302
554.000000	3971162.436467
555.000000	3862283.761246
556.000000	3757010.390953
557.000000	3655220.263768
558.000000	3556793.655650
559.000000	3461613.577242
560.000000	3369565.849590
561.000000	3280539.303197
562.000000	3194425.922705
563.000000	3111120.843510
564.000000	3030522.466465
565.000000	2952532.441715
566.000000	2877055.677567
567.000000	2804000.308671
568.000000	2733277.671980
569.000000	2664802.241831
570.000000	2598491.579119
571.000000	2534266.255574
572.000000	2472049.782310
573.000000	2411768.524020
574.000000	2353351.618654
575.000000	2296730.886906
576.000000	2241840.745125
577.000000	2188618.114939
578.000000	2137002.337173
579.000000	2086935.077391
580.000000	2038360.247073
581.000000	1991223.909349
582.000000	1945474.202299
583.000000	1901061.251721
584.000000	1857937.097002
585.000000	1816055.609235
586.000000	1775372.420776
587.000000	1735844.851278
588.000000	1697431.839669
589.000000	1660093.876920
590.000000	1623792.942647
591.000000	1588492.442735
592.000000	1554157.151883
593.000000	1520753.156179
594.000000	1488247.798609
595.000000	1456609.630331
596.000000	1425808.355922
597.000000	1395814.791587
598.000000	1366600.816519
599.000000	1338139.330428
600.000000	1310404.212715
601.000000	1283370.282335
602.000000	1257013.260720
603.000000	1231309.735842
604.000000	1206237.126388
605.000000	1181773.651422
606.000000	1157898.296003
607.000000	1134590.784304
608.000000	1111831.547846
609.000000	1089601.700249
610.000000	1067883.010147
611.000000	1046657.876238
612.000000	1025909.304771
613.000000	1005620.884183
614.000000	985776.765718
615.000000	966361.639407
616.000000	947360.716899
617.000000	928759.710536
618.000000	910544.817188
619.000000	892702.703377
620.000000	875220.470193
621.000000	858085.653525
622.000000	841286.243457
623.000000	824810.692659
624.000000	808647.663337
625.000000	792786.064812
626.000000	777215.277848
627.000000	761925.895627
628.000000	746907.323205
629.000000	732150.422161
630.000000	717646.139664
631.000000	703385.231115
632.000000	689359.271303
633.000000	675559.974049
634.000000	661979.435432
635.000000	648609.566007
636.000000	635443.061084
637.000000	622472.629121
638.000000	609691.399115
639.000000	597092.216285
640.000000	584668.761334
641.000000	572414.621346
642.000000	560323.841741
643.000000	548390.135453
644.000000	536607.992659
645.000000	524971.760553
646.000000	513476.293560
647.000000	502116.084898
648.000000	490886.324394
649.000000	479782.056138
650.000000	468798.717898
651.000000	457931.687148
652.000000	447176.549419
653.000000	436529.217793
654.000000	425985.378395
655.000000	415541.242204
656.000000	405193.028717
657.000000	394936.864586
658.000000	384769.240448
659.000000	374686.656997
660.000000	364685.875366
661.000000	354763.621965
662.000000	344916.725912
663.000000	335142.177136
664.000000	325437.003392
665.000000	315798.376820
666.000000	306223.492024
667.000000	296709.783749
668.000000	287254.583644
669.000000	277855.294483
670.000000	268509.508381
671.000000	259214.850707
672.000000	249968.840965
673.000000	240769.257198
674.000000	231613.735323
675.000000	222500.068251
676.000000	213425.901387
677.000000	204389.018129
678.000000	195387.081325
679.000000	186417.766423
680.000000	177478.624826
681.000000	168567.099809
682.000000	159680.541083
683.000000	150816.145056
684.000000	141970.865868
685.000000	133141.419476
686.000000	124324.247051
687.000000	115515.502255
688.000000	106711.044361
689.000000	97906.448581
690.000000	89097.069131
691.000000	80278.171930
692.000000	71445.142382
693.000000	62593.774461
694.000000	53720.643668
695.000000	44823.579978
696.000000	35903.204480
697.000000	27013.451565
698.000000	17752.149664
699.000000	9163.800763
700.000000	0.000000
