# Profil de ElecX au temps 1.300000000000017e-11 
# simu : /Volumes/MERCURE/JOBS/Zeq2_tanh_50mic_7p5e19_B0_20ps/GNU/ElecX@y-c.set
# col 0 : abscisse (um)
# col 1 : ElecX (V/m)
0.00000000e+00	0.00000000e+00
1.00000000e+00	4.02092708e+03
2.00000000e+00	4.59797052e+03
3.00000000e+00	6.62833923e+03
4.00000000e+00	9.90132464e+03
5.00000000e+00	1.22849754e+04
6.00000000e+00	1.47293384e+04
7.00000000e+00	1.71866914e+04
8.00000000e+00	1.96474798e+04
9.00000000e+00	2.21099409e+04
1.00000000e+01	2.45757738e+04
1.10000000e+01	2.70441852e+04
1.20000000e+01	2.95159878e+04
1.30000000e+01	3.19905791e+04
1.40000000e+01	3.44691116e+04
1.50000000e+01	3.69520664e+04
1.60000000e+01	3.94385338e+04
1.70000000e+01	4.19297508e+04
1.80000000e+01	4.44264536e+04
1.90000000e+01	4.69269289e+04
2.00000000e+01	4.94338544e+04
2.10000000e+01	5.19462891e+04
2.20000000e+01	5.44640009e+04
2.30000000e+01	5.69883324e+04
2.40000000e+01	5.95190849e+04
2.50000000e+01	6.20567104e+04
2.60000000e+01	6.46006337e+04
2.70000000e+01	6.71522972e+04
2.80000000e+01	6.97113454e+04
2.90000000e+01	7.22782211e+04
3.00000000e+01	7.48527863e+04
3.10000000e+01	7.74356501e+04
3.20000000e+01	8.00271478e+04
3.30000000e+01	8.26272953e+04
3.40000000e+01	8.52366164e+04
3.50000000e+01	8.78545554e+04
3.60000000e+01	9.04824729e+04
3.70000000e+01	9.31199016e+04
3.80000000e+01	9.57673079e+04
3.90000000e+01	9.84249289e+04
4.00000000e+01	1.01092535e+05
4.10000000e+01	1.03771155e+05
4.20000000e+01	1.06460507e+05
4.30000000e+01	1.09160812e+05
4.40000000e+01	1.11872621e+05
4.50000000e+01	1.14595408e+05
4.60000000e+01	1.17330314e+05
4.70000000e+01	1.20077024e+05
4.80000000e+01	1.22835776e+05
4.90000000e+01	1.25606921e+05
5.00000000e+01	1.28390464e+05
5.10000000e+01	1.31186627e+05
5.20000000e+01	1.33995891e+05
5.30000000e+01	1.36818084e+05
5.40000000e+01	1.39653595e+05
5.50000000e+01	1.42502627e+05
5.60000000e+01	1.45365121e+05
5.70000000e+01	1.48241437e+05
5.80000000e+01	1.51131801e+05
5.90000000e+01	1.54036295e+05
6.00000000e+01	1.56955091e+05
6.10000000e+01	1.59888428e+05
6.20000000e+01	1.62836283e+05
6.30000000e+01	1.65798839e+05
6.40000000e+01	1.68776525e+05
6.50000000e+01	1.71769240e+05
6.60000000e+01	1.74777176e+05
6.70000000e+01	1.77800470e+05
6.80000000e+01	1.80839402e+05
6.90000000e+01	1.83893720e+05
7.00000000e+01	1.86964029e+05
7.10000000e+01	1.90050194e+05
7.20000000e+01	1.93152406e+05
7.30000000e+01	1.96270773e+05
7.40000000e+01	1.99405416e+05
7.50000000e+01	2.02556575e+05
7.60000000e+01	2.05723906e+05
7.70000000e+01	2.08908134e+05
7.80000000e+01	2.12109036e+05
7.90000000e+01	2.15326735e+05
8.00000000e+01	2.18561395e+05
8.10000000e+01	2.21813072e+05
8.20000000e+01	2.25081933e+05
8.30000000e+01	2.28367874e+05
8.40000000e+01	2.31671161e+05
8.50000000e+01	2.34991849e+05
8.60000000e+01	2.38330026e+05
8.70000000e+01	2.41685687e+05
8.80000000e+01	2.45058992e+05
8.90000000e+01	2.48450000e+05
9.00000000e+01	2.51858815e+05
9.10000000e+01	2.55285342e+05
9.20000000e+01	2.58729804e+05
9.30000000e+01	2.62192267e+05
9.40000000e+01	2.65672731e+05
9.50000000e+01	2.69171269e+05
9.60000000e+01	2.72687937e+05
9.70000000e+01	2.76222797e+05
9.80000000e+01	2.79775871e+05
9.90000000e+01	2.83347281e+05
1.00000000e+02	2.86936929e+05
1.01000000e+02	2.90544959e+05
1.02000000e+02	2.94171461e+05
1.03000000e+02	2.97816414e+05
1.04000000e+02	3.01479800e+05
1.05000000e+02	3.05161731e+05
1.06000000e+02	3.08862259e+05
1.07000000e+02	3.12581314e+05
1.08000000e+02	3.16319025e+05
1.09000000e+02	3.20075409e+05
1.10000000e+02	3.23850376e+05
1.11000000e+02	3.27644193e+05
1.12000000e+02	3.31456515e+05
1.13000000e+02	3.35287786e+05
1.14000000e+02	3.39137706e+05
1.15000000e+02	3.43006486e+05
1.16000000e+02	3.46893984e+05
1.17000000e+02	3.50800404e+05
1.18000000e+02	3.54725555e+05
1.19000000e+02	3.58669669e+05
1.20000000e+02	3.62632551e+05
1.21000000e+02	3.66614375e+05
1.22000000e+02	3.70615077e+05
1.23000000e+02	3.74634664e+05
1.24000000e+02	3.78673228e+05
1.25000000e+02	3.82730642e+05
1.26000000e+02	3.86807043e+05
1.27000000e+02	3.90902411e+05
1.28000000e+02	3.95016685e+05
1.29000000e+02	3.99149973e+05
1.30000000e+02	4.03302237e+05
1.31000000e+02	4.07473461e+05
1.32000000e+02	4.11663715e+05
1.33000000e+02	4.15872980e+05
1.34000000e+02	4.20101247e+05
1.35000000e+02	4.24348543e+05
1.36000000e+02	4.28614901e+05
1.37000000e+02	4.32900307e+05
1.38000000e+02	4.37204766e+05
1.39000000e+02	4.41528303e+05
1.40000000e+02	4.45870946e+05
1.41000000e+02	4.50232700e+05
1.42000000e+02	4.54613535e+05
1.43000000e+02	4.59013531e+05
1.44000000e+02	4.63432682e+05
1.45000000e+02	4.67870995e+05
1.46000000e+02	4.72328503e+05
1.47000000e+02	4.76805222e+05
1.48000000e+02	4.81301173e+05
1.49000000e+02	4.85816379e+05
1.50000000e+02	4.90350861e+05
1.51000000e+02	4.94904640e+05
1.52000000e+02	4.99477767e+05
1.53000000e+02	5.04070257e+05
1.54000000e+02	5.08682144e+05
1.55000000e+02	5.13313475e+05
1.56000000e+02	5.17964235e+05
1.57000000e+02	5.22634526e+05
1.58000000e+02	5.27324281e+05
1.59000000e+02	5.32033565e+05
1.60000000e+02	5.36762567e+05
1.61000000e+02	5.41511238e+05
1.62000000e+02	5.46279682e+05
1.63000000e+02	5.51067913e+05
1.64000000e+02	5.55875978e+05
1.65000000e+02	5.60703926e+05
1.66000000e+02	5.65551854e+05
1.67000000e+02	5.70419772e+05
1.68000000e+02	5.75307723e+05
1.69000000e+02	5.80215877e+05
1.70000000e+02	5.85144271e+05
1.71000000e+02	5.90092960e+05
1.72000000e+02	5.95062081e+05
1.73000000e+02	6.00051672e+05
1.74000000e+02	6.05061843e+05
1.75000000e+02	6.10092696e+05
1.76000000e+02	6.15144298e+05
1.77000000e+02	6.20216791e+05
1.78000000e+02	6.25310236e+05
1.79000000e+02	6.30424785e+05
1.80000000e+02	6.35560514e+05
1.81000000e+02	6.40717571e+05
1.82000000e+02	6.45896060e+05
1.83000000e+02	6.51096118e+05
1.84000000e+02	6.56317878e+05
1.85000000e+02	6.61561473e+05
1.86000000e+02	6.66827050e+05
1.87000000e+02	6.72114757e+05
1.88000000e+02	6.77424747e+05
1.89000000e+02	6.82757180e+05
1.90000000e+02	6.88112219e+05
1.91000000e+02	6.93490005e+05
1.92000000e+02	6.98890731e+05
1.93000000e+02	7.04314579e+05
1.94000000e+02	7.09761745e+05
1.95000000e+02	7.15232430e+05
1.96000000e+02	7.20726845e+05
1.97000000e+02	7.26245209e+05
1.98000000e+02	7.31787744e+05
1.99000000e+02	7.37354678e+05
2.00000000e+02	7.42946245e+05
2.01000000e+02	7.48562686e+05
2.02000000e+02	7.54204247e+05
2.03000000e+02	7.59871181e+05
2.04000000e+02	7.65563748e+05
2.05000000e+02	7.71282217e+05
2.06000000e+02	7.77026866e+05
2.07000000e+02	7.82797979e+05
2.08000000e+02	7.88595853e+05
2.09000000e+02	7.94420790e+05
2.10000000e+02	8.00273105e+05
2.11000000e+02	8.06153121e+05
2.12000000e+02	8.12061172e+05
2.13000000e+02	8.17997600e+05
2.14000000e+02	8.23962759e+05
2.15000000e+02	8.29957014e+05
2.16000000e+02	8.35980738e+05
2.17000000e+02	8.42034319e+05
2.18000000e+02	8.48118152e+05
2.19000000e+02	8.54232647e+05
2.20000000e+02	8.60378223e+05
2.21000000e+02	8.66555313e+05
2.22000000e+02	8.72764361e+05
2.23000000e+02	8.79005823e+05
2.24000000e+02	8.85280170e+05
2.25000000e+02	8.91587883e+05
2.26000000e+02	8.97929460e+05
2.27000000e+02	9.04305411e+05
2.28000000e+02	9.10716258e+05
2.29000000e+02	9.17162540e+05
2.30000000e+02	9.23644810e+05
2.31000000e+02	9.30163636e+05
2.32000000e+02	9.36719601e+05
2.33000000e+02	9.43313303e+05
2.34000000e+02	9.49945357e+05
2.35000000e+02	9.56616394e+05
2.36000000e+02	9.63327062e+05
2.37000000e+02	9.70078025e+05
2.38000000e+02	9.76869966e+05
2.39000000e+02	9.83703583e+05
2.40000000e+02	9.90579595e+05
2.41000000e+02	9.97498737e+05
2.42000000e+02	1.00446176e+06
2.43000000e+02	1.01146945e+06
2.44000000e+02	1.01852259e+06
2.45000000e+02	1.02562200e+06
2.46000000e+02	1.03276851e+06
2.47000000e+02	1.03996297e+06
2.48000000e+02	1.04720627e+06
2.49000000e+02	1.05449929e+06
2.50000000e+02	1.06184295e+06
2.51000000e+02	1.06923821e+06
2.52000000e+02	1.07668601e+06
2.53000000e+02	1.08418735e+06
2.54000000e+02	1.09174324e+06
2.55000000e+02	1.09935471e+06
2.56000000e+02	1.10702281e+06
2.57000000e+02	1.11474864e+06
2.58000000e+02	1.12253328e+06
2.59000000e+02	1.13037789e+06
2.60000000e+02	1.13828360e+06
2.61000000e+02	1.14625161e+06
2.62000000e+02	1.15428313e+06
2.63000000e+02	1.16237939e+06
2.64000000e+02	1.17054165e+06
2.65000000e+02	1.17877120e+06
2.66000000e+02	1.18706937e+06
2.67000000e+02	1.19543748e+06
2.68000000e+02	1.20387693e+06
2.69000000e+02	1.21238910e+06
2.70000000e+02	1.22097543e+06
2.71000000e+02	1.22963737e+06
2.72000000e+02	1.23837643e+06
2.73000000e+02	1.24719410e+06
2.74000000e+02	1.25609195e+06
2.75000000e+02	1.26507154e+06
2.76000000e+02	1.27413449e+06
2.77000000e+02	1.28328243e+06
2.78000000e+02	1.29251704e+06
2.79000000e+02	1.30184001e+06
2.80000000e+02	1.31125307e+06
2.81000000e+02	1.32075798e+06
2.82000000e+02	1.33035655e+06
2.83000000e+02	1.34005058e+06
2.84000000e+02	1.34984195e+06
2.85000000e+02	1.35973253e+06
2.86000000e+02	1.36972424e+06
2.87000000e+02	1.37981905e+06
2.88000000e+02	1.39001892e+06
2.89000000e+02	1.40032589e+06
2.90000000e+02	1.41074199e+06
2.91000000e+02	1.42126930e+06
2.92000000e+02	1.43190994e+06
2.93000000e+02	1.44266605e+06
2.94000000e+02	1.45353981e+06
2.95000000e+02	1.46453343e+06
2.96000000e+02	1.47564914e+06
2.97000000e+02	1.48688922e+06
2.98000000e+02	1.49825597e+06
2.99000000e+02	1.50975173e+06
3.00000000e+02	1.52137886e+06
3.01000000e+02	1.53313977e+06
3.02000000e+02	1.54503689e+06
3.03000000e+02	1.55707268e+06
3.04000000e+02	1.56924963e+06
3.05000000e+02	1.58157026e+06
3.06000000e+02	1.59403713e+06
3.07000000e+02	1.60665283e+06
3.08000000e+02	1.61941997e+06
3.09000000e+02	1.63234119e+06
3.10000000e+02	1.64541918e+06
3.11000000e+02	1.65865663e+06
3.12000000e+02	1.67205629e+06
3.13000000e+02	1.68562091e+06
3.14000000e+02	1.69935330e+06
3.15000000e+02	1.71325625e+06
3.16000000e+02	1.72733264e+06
3.17000000e+02	1.74158532e+06
3.18000000e+02	1.75601722e+06
3.19000000e+02	1.77063125e+06
3.20000000e+02	1.78543037e+06
3.21000000e+02	1.80041757e+06
3.22000000e+02	1.81559585e+06
3.23000000e+02	1.83096826e+06
3.24000000e+02	1.84653784e+06
3.25000000e+02	1.86230768e+06
3.26000000e+02	1.87828088e+06
3.27000000e+02	1.89446059e+06
3.28000000e+02	1.91084994e+06
3.29000000e+02	1.92745212e+06
3.30000000e+02	1.94427032e+06
3.31000000e+02	1.96130776e+06
3.32000000e+02	1.97856767e+06
3.33000000e+02	1.99605332e+06
3.34000000e+02	2.01376797e+06
3.35000000e+02	2.03171493e+06
3.36000000e+02	2.04989750e+06
3.37000000e+02	2.06831902e+06
3.38000000e+02	2.08698282e+06
3.39000000e+02	2.10589228e+06
3.40000000e+02	2.12505075e+06
3.41000000e+02	2.14446163e+06
3.42000000e+02	2.16412831e+06
3.43000000e+02	2.18405421e+06
3.44000000e+02	2.20424275e+06
3.45000000e+02	2.22469735e+06
3.46000000e+02	2.24542145e+06
3.47000000e+02	2.26641850e+06
3.48000000e+02	2.28769194e+06
3.49000000e+02	2.30924522e+06
3.50000000e+02	2.33108181e+06
3.51000000e+02	2.35320515e+06
3.52000000e+02	2.37561870e+06
3.53000000e+02	2.39832591e+06
3.54000000e+02	2.42133024e+06
3.55000000e+02	2.44463512e+06
3.56000000e+02	2.46824398e+06
3.57000000e+02	2.49216027e+06
3.58000000e+02	2.51638738e+06
3.59000000e+02	2.54092873e+06
3.60000000e+02	2.56578768e+06
3.61000000e+02	2.59096761e+06
3.62000000e+02	2.61647187e+06
3.63000000e+02	2.64230377e+06
3.64000000e+02	2.66846661e+06
3.65000000e+02	2.69496366e+06
3.66000000e+02	2.72179815e+06
3.67000000e+02	2.74897328e+06
3.68000000e+02	2.77649221e+06
3.69000000e+02	2.80435807e+06
3.70000000e+02	2.83257394e+06
3.71000000e+02	2.86114284e+06
3.72000000e+02	2.89006775e+06
3.73000000e+02	2.91935160e+06
3.74000000e+02	2.94899726e+06
3.75000000e+02	2.97900753e+06
3.76000000e+02	3.00938515e+06
3.77000000e+02	3.04013278e+06
3.78000000e+02	3.07125302e+06
3.79000000e+02	3.10274839e+06
3.80000000e+02	3.13462131e+06
3.81000000e+02	3.16687413e+06
3.82000000e+02	3.19950910e+06
3.83000000e+02	3.23252839e+06
3.84000000e+02	3.26593403e+06
3.85000000e+02	3.29972798e+06
3.86000000e+02	3.33391208e+06
3.87000000e+02	3.36848804e+06
3.88000000e+02	3.40345747e+06
3.89000000e+02	3.43882182e+06
3.90000000e+02	3.47458245e+06
3.91000000e+02	3.51074055e+06
3.92000000e+02	3.54729719e+06
3.93000000e+02	3.58425328e+06
3.94000000e+02	3.62160957e+06
3.95000000e+02	3.65936666e+06
3.96000000e+02	3.69752500e+06
3.97000000e+02	3.73608486e+06
3.98000000e+02	3.77504631e+06
3.99000000e+02	3.81440928e+06
4.00000000e+02	3.85417349e+06
4.01000000e+02	3.89433849e+06
4.02000000e+02	3.93490360e+06
4.03000000e+02	3.97586798e+06
4.04000000e+02	4.01723056e+06
4.05000000e+02	4.05899006e+06
4.06000000e+02	4.10114500e+06
4.07000000e+02	4.14369365e+06
4.08000000e+02	4.18663409e+06
4.09000000e+02	4.22996415e+06
4.10000000e+02	4.27368144e+06
4.11000000e+02	4.31778331e+06
4.12000000e+02	4.36226690e+06
4.13000000e+02	4.40712908e+06
4.14000000e+02	4.45236649e+06
4.15000000e+02	4.49797551e+06
4.16000000e+02	4.54395226e+06
4.17000000e+02	4.59029263e+06
4.18000000e+02	4.63699222e+06
4.19000000e+02	4.68404638e+06
4.20000000e+02	4.73145022e+06
4.21000000e+02	4.77919855e+06
4.22000000e+02	4.82728595e+06
4.23000000e+02	4.87570671e+06
4.24000000e+02	4.92445486e+06
4.25000000e+02	4.97352417e+06
4.26000000e+02	5.02290815e+06
4.27000000e+02	5.07260003e+06
4.28000000e+02	5.12259278e+06
4.29000000e+02	5.17287912e+06
4.30000000e+02	5.22345149e+06
4.31000000e+02	5.27430208e+06
4.32000000e+02	5.32542282e+06
4.33000000e+02	5.37680538e+06
4.34000000e+02	5.42844119e+06
4.35000000e+02	5.48032140e+06
4.36000000e+02	5.53243694e+06
4.37000000e+02	5.58477848e+06
4.38000000e+02	5.63733644e+06
4.39000000e+02	5.69010101e+06
4.40000000e+02	5.74306214e+06
4.41000000e+02	5.79620953e+06
4.42000000e+02	5.84953265e+06
4.43000000e+02	5.90302074e+06
4.44000000e+02	5.95666281e+06
4.45000000e+02	6.01044764e+06
4.46000000e+02	6.06436376e+06
4.47000000e+02	6.11839949e+06
4.48000000e+02	6.17254290e+06
4.49000000e+02	6.22678184e+06
4.50000000e+02	6.28110393e+06
4.51000000e+02	6.33549652e+06
4.52000000e+02	6.38994673e+06
4.53000000e+02	6.44444145e+06
4.54000000e+02	6.49896727e+06
4.55000000e+02	6.55351054e+06
4.56000000e+02	6.60805733e+06
4.57000000e+02	6.66259341e+06
4.58000000e+02	6.71710426e+06
4.59000000e+02	6.77157504e+06
4.60000000e+02	6.82599056e+06
4.61000000e+02	6.88033530e+06
4.62000000e+02	6.93459335e+06
4.63000000e+02	6.98874842e+06
4.64000000e+02	7.04278377e+06
4.65000000e+02	7.09668224e+06
4.66000000e+02	7.15042618e+06
4.67000000e+02	7.20399744e+06
4.68000000e+02	7.25737732e+06
4.69000000e+02	7.31054655e+06
4.70000000e+02	7.36348526e+06
4.71000000e+02	7.41617291e+06
4.72000000e+02	7.46858829e+06
4.73000000e+02	7.52070943e+06
4.74000000e+02	7.57251363e+06
4.75000000e+02	7.62397734e+06
4.76000000e+02	7.67507615e+06
4.77000000e+02	7.72578476e+06
4.78000000e+02	7.77607689e+06
4.79000000e+02	7.82592531e+06
4.80000000e+02	7.87530169e+06
4.81000000e+02	7.92417665e+06
4.82000000e+02	7.97251966e+06
4.83000000e+02	8.02029905e+06
4.84000000e+02	8.06748192e+06
4.85000000e+02	8.11403411e+06
4.86000000e+02	8.15992022e+06
4.87000000e+02	8.20510353e+06
4.88000000e+02	8.24954598e+06
4.89000000e+02	8.29320820e+06
4.90000000e+02	8.33604943e+06
4.91000000e+02	8.37802758e+06
4.92000000e+02	8.41909918e+06
4.93000000e+02	8.45921944e+06
4.94000000e+02	8.49834223e+06
4.95000000e+02	8.53642015e+06
4.96000000e+02	8.57340453e+06
4.97000000e+02	8.60924553e+06
4.98000000e+02	8.64389216e+06
4.99000000e+02	8.67729240e+06
5.00000000e+02	8.70939326e+06
5.01000000e+02	8.74014090e+06
5.02000000e+02	8.76948078e+06
5.03000000e+02	8.79735772e+06
5.04000000e+02	8.82371613e+06
5.05000000e+02	8.84850014e+06
5.06000000e+02	8.87165377e+06
5.07000000e+02	8.89312116e+06
5.08000000e+02	8.91284673e+06
5.09000000e+02	8.93077547e+06
5.10000000e+02	8.94685312e+06
5.11000000e+02	8.96102646e+06
5.12000000e+02	8.97324353e+06
5.13000000e+02	8.98345395e+06
5.14000000e+02	8.99160917e+06
5.15000000e+02	8.99766274e+06
5.16000000e+02	9.00157064e+06
5.17000000e+02	9.00329155e+06
5.18000000e+02	9.00278713e+06
5.19000000e+02	9.00002233e+06
5.20000000e+02	8.99496566e+06
5.21000000e+02	8.98758947e+06
5.22000000e+02	8.97787021e+06
5.23000000e+02	8.96578866e+06
5.24000000e+02	8.95133019e+06
5.25000000e+02	8.93448494e+06
5.26000000e+02	8.91524803e+06
5.27000000e+02	8.89361970e+06
5.28000000e+02	8.86960546e+06
5.29000000e+02	8.84321615e+06
5.30000000e+02	8.81446807e+06
5.31000000e+02	8.78338293e+06
5.32000000e+02	8.74998794e+06
5.33000000e+02	8.71431569e+06
5.34000000e+02	8.67640413e+06
5.35000000e+02	8.63629640e+06
5.36000000e+02	8.59404076e+06
5.37000000e+02	8.54969033e+06
5.38000000e+02	8.50330290e+06
5.39000000e+02	8.45494071e+06
5.40000000e+02	8.40467013e+06
5.41000000e+02	8.35256137e+06
5.42000000e+02	8.29868817e+06
5.43000000e+02	8.24312741e+06
5.44000000e+02	8.18595879e+06
5.45000000e+02	8.12726443e+06
5.46000000e+02	8.06712847e+06
5.47000000e+02	8.00563673e+06
5.48000000e+02	7.94287623e+06
5.49000000e+02	7.87893487e+06
5.50000000e+02	7.81390103e+06
5.51000000e+02	7.74786315e+06
5.52000000e+02	7.68090941e+06
5.53000000e+02	7.61312736e+06
5.54000000e+02	7.54460358e+06
5.55000000e+02	7.47542335e+06
5.56000000e+02	7.40567041e+06
5.57000000e+02	7.33542661e+06
5.58000000e+02	7.26477172e+06
5.59000000e+02	7.19378318e+06
5.60000000e+02	7.12253589e+06
5.61000000e+02	7.05110207e+06
5.62000000e+02	6.97955105e+06
5.63000000e+02	6.90794922e+06
5.64000000e+02	6.83635986e+06
5.65000000e+02	6.76484309e+06
5.66000000e+02	6.69345580e+06
5.67000000e+02	6.62225165e+06
5.68000000e+02	6.55128100e+06
5.69000000e+02	6.48059097e+06
5.70000000e+02	6.41022539e+06
5.71000000e+02	6.34022489e+06
5.72000000e+02	6.27062691e+06
5.73000000e+02	6.20146579e+06
5.74000000e+02	6.13277278e+06
5.75000000e+02	6.06457622e+06
5.76000000e+02	5.99690152e+06
5.77000000e+02	5.92977135e+06
5.78000000e+02	5.86320570e+06
5.79000000e+02	5.79722196e+06
5.80000000e+02	5.73183507e+06
5.81000000e+02	5.66705759e+06
5.82000000e+02	5.60289985e+06
5.83000000e+02	5.53937003e+06
5.84000000e+02	5.47647430e+06
5.85000000e+02	5.41421691e+06
5.86000000e+02	5.35260033e+06
5.87000000e+02	5.29162535e+06
5.88000000e+02	5.23129118e+06
5.89000000e+02	5.17159556e+06
5.90000000e+02	5.11253488e+06
5.91000000e+02	5.05410423e+06
5.92000000e+02	4.99629753e+06
5.93000000e+02	4.93910761e+06
5.94000000e+02	4.88252629e+06
5.95000000e+02	4.82654450e+06
5.96000000e+02	4.77115230e+06
5.97000000e+02	4.71633904e+06
5.98000000e+02	4.66209337e+06
5.99000000e+02	4.60840333e+06
6.00000000e+02	4.55525642e+06
6.01000000e+02	4.50263965e+06
6.02000000e+02	4.45053959e+06
6.03000000e+02	4.39894249e+06
6.04000000e+02	4.34783427e+06
6.05000000e+02	4.29720058e+06
6.06000000e+02	4.24702685e+06
6.07000000e+02	4.19729832e+06
6.08000000e+02	4.14800006e+06
6.09000000e+02	4.09911707e+06
6.10000000e+02	4.05063429e+06
6.11000000e+02	4.00253666e+06
6.12000000e+02	3.95480910e+06
6.13000000e+02	3.90743652e+06
6.14000000e+02	3.86040384e+06
6.15000000e+02	3.81369613e+06
6.16000000e+02	3.76729853e+06
6.17000000e+02	3.72119634e+06
6.18000000e+02	3.67537492e+06
6.19000000e+02	3.62981984e+06
6.20000000e+02	3.58451683e+06
6.21000000e+02	3.53945178e+06
6.22000000e+02	3.49461074e+06
6.23000000e+02	3.44998004e+06
6.24000000e+02	3.40554620e+06
6.25000000e+02	3.36129595e+06
6.26000000e+02	3.31721626e+06
6.27000000e+02	3.27329432e+06
6.28000000e+02	3.22951756e+06
6.29000000e+02	3.18587377e+06
6.30000000e+02	3.14235097e+06
6.31000000e+02	3.09893745e+06
6.32000000e+02	3.05562175e+06
6.33000000e+02	3.01239270e+06
6.34000000e+02	2.96923939e+06
6.35000000e+02	2.92615113e+06
6.36000000e+02	2.88311756e+06
6.37000000e+02	2.84012876e+06
6.38000000e+02	2.79717505e+06
6.39000000e+02	2.75424686e+06
6.40000000e+02	2.71133495e+06
6.41000000e+02	2.66843068e+06
6.42000000e+02	2.62552540e+06
6.43000000e+02	2.58261078e+06
6.44000000e+02	2.53967924e+06
6.45000000e+02	2.49672249e+06
6.46000000e+02	2.45373386e+06
6.47000000e+02	2.41070579e+06
6.48000000e+02	2.36763204e+06
6.49000000e+02	2.32450597e+06
6.50000000e+02	2.28132054e+06
6.51000000e+02	2.23807419e+06
6.52000000e+02	2.19475103e+06
6.53000000e+02	2.15136098e+06
6.54000000e+02	2.10789128e+06
6.55000000e+02	2.06431224e+06
6.56000000e+02	2.02068493e+06
6.57000000e+02	1.97695262e+06
6.58000000e+02	1.93313941e+06
6.59000000e+02	1.88916870e+06
