# Profil de ElecX au temps 1.200000000000016e-11 
# simu : /Volumes/MERCURE/JOBS/Zeq2_tanh_50mic_7p5e19_B0_20ps/GNU/ElecX@y-c.set
# col 0 : abscisse (um)
# col 1 : ElecX (V/m)
0.00000000e+00	0.00000000e+00
1.00000000e+00	3.13164173e+03
2.00000000e+00	3.08299069e+03
3.00000000e+00	4.38374349e+03
4.00000000e+00	6.82255815e+03
5.00000000e+00	8.44528973e+03
6.00000000e+00	1.01241469e+04
7.00000000e+00	1.18159639e+04
8.00000000e+00	1.35119572e+04
9.00000000e+00	1.52108159e+04
1.00000000e+01	1.69139177e+04
1.10000000e+01	1.86208947e+04
1.20000000e+01	2.03325307e+04
1.30000000e+01	2.20485917e+04
1.40000000e+01	2.37701036e+04
1.50000000e+01	2.54976177e+04
1.60000000e+01	2.72306733e+04
1.70000000e+01	2.89703641e+04
1.80000000e+01	3.07174067e+04
1.90000000e+01	3.24707760e+04
2.00000000e+01	3.42325849e+04
2.10000000e+01	3.60023527e+04
2.20000000e+01	3.77801118e+04
2.30000000e+01	3.95670133e+04
2.40000000e+01	4.13631082e+04
2.50000000e+01	4.31689083e+04
2.60000000e+01	4.49842032e+04
2.70000000e+01	4.68102013e+04
2.80000000e+01	4.86468423e+04
2.90000000e+01	5.04946271e+04
3.00000000e+01	5.23536486e+04
3.10000000e+01	5.42245226e+04
3.20000000e+01	5.61076695e+04
3.30000000e+01	5.80032863e+04
3.40000000e+01	5.99119210e+04
3.50000000e+01	6.18333745e+04
3.60000000e+01	6.37687721e+04
3.70000000e+01	6.57179713e+04
3.80000000e+01	6.76814730e+04
3.90000000e+01	6.96596192e+04
4.00000000e+01	7.16524328e+04
4.10000000e+01	7.36607927e+04
4.20000000e+01	7.56846792e+04
4.30000000e+01	7.77244224e+04
4.40000000e+01	7.97805596e+04
4.50000000e+01	8.18529122e+04
4.60000000e+01	8.39424176e+04
4.70000000e+01	8.60490284e+04
4.80000000e+01	8.81730744e+04
4.90000000e+01	9.03149510e+04
5.00000000e+01	9.24748246e+04
5.10000000e+01	9.46530048e+04
5.20000000e+01	9.68499661e+04
5.30000000e+01	9.90657575e+04
5.40000000e+01	1.01300785e+05
5.50000000e+01	1.03555335e+05
5.60000000e+01	1.05829521e+05
5.70000000e+01	1.08123730e+05
5.80000000e+01	1.10438254e+05
5.90000000e+01	1.12773290e+05
6.00000000e+01	1.15129092e+05
6.10000000e+01	1.17505954e+05
6.20000000e+01	1.19904005e+05
6.30000000e+01	1.22323493e+05
6.40000000e+01	1.24764827e+05
6.50000000e+01	1.27228074e+05
6.60000000e+01	1.29713486e+05
6.70000000e+01	1.32221278e+05
6.80000000e+01	1.34751744e+05
6.90000000e+01	1.37304857e+05
7.00000000e+01	1.39881106e+05
7.10000000e+01	1.42480530e+05
7.20000000e+01	1.45103355e+05
7.30000000e+01	1.47749766e+05
7.40000000e+01	1.50419958e+05
7.50000000e+01	1.53114170e+05
7.60000000e+01	1.55832312e+05
7.70000000e+01	1.58574910e+05
7.80000000e+01	1.61341932e+05
7.90000000e+01	1.64133561e+05
8.00000000e+01	1.66949971e+05
8.10000000e+01	1.69791280e+05
8.20000000e+01	1.72657697e+05
8.30000000e+01	1.75549244e+05
8.40000000e+01	1.78466153e+05
8.50000000e+01	1.81408564e+05
8.60000000e+01	1.84376555e+05
8.70000000e+01	1.87370252e+05
8.80000000e+01	1.90389790e+05
8.90000000e+01	1.93435273e+05
9.00000000e+01	1.96506835e+05
9.10000000e+01	1.99604488e+05
9.20000000e+01	2.02728419e+05
9.30000000e+01	2.05878720e+05
9.40000000e+01	2.09055451e+05
9.50000000e+01	2.12258707e+05
9.60000000e+01	2.15488536e+05
9.70000000e+01	2.18745031e+05
9.80000000e+01	2.22028309e+05
9.90000000e+01	2.25338435e+05
1.00000000e+02	2.28675400e+05
1.01000000e+02	2.32039337e+05
1.02000000e+02	2.35430292e+05
1.03000000e+02	2.38848299e+05
1.04000000e+02	2.42293406e+05
1.05000000e+02	2.45765668e+05
1.06000000e+02	2.49265124e+05
1.07000000e+02	2.52791811e+05
1.08000000e+02	2.56345764e+05
1.09000000e+02	2.59927015e+05
1.10000000e+02	2.63535585e+05
1.11000000e+02	2.67171522e+05
1.12000000e+02	2.70834783e+05
1.13000000e+02	2.74525472e+05
1.14000000e+02	2.78243551e+05
1.15000000e+02	2.81989040e+05
1.16000000e+02	2.85761951e+05
1.17000000e+02	2.89562289e+05
1.18000000e+02	2.93390055e+05
1.19000000e+02	2.97245251e+05
1.20000000e+02	3.01127872e+05
1.21000000e+02	3.05037913e+05
1.22000000e+02	3.08975372e+05
1.23000000e+02	3.12940157e+05
1.24000000e+02	3.16932325e+05
1.25000000e+02	3.20951894e+05
1.26000000e+02	3.24998839e+05
1.27000000e+02	3.29073142e+05
1.28000000e+02	3.33174782e+05
1.29000000e+02	3.37303738e+05
1.30000000e+02	3.41459984e+05
1.31000000e+02	3.45643495e+05
1.32000000e+02	3.49854246e+05
1.33000000e+02	3.54092207e+05
1.34000000e+02	3.58357349e+05
1.35000000e+02	3.62649643e+05
1.36000000e+02	3.66969056e+05
1.37000000e+02	3.71315557e+05
1.38000000e+02	3.75689113e+05
1.39000000e+02	3.80089689e+05
1.40000000e+02	3.84517253e+05
1.41000000e+02	3.88971772e+05
1.42000000e+02	3.93453201e+05
1.43000000e+02	3.97961518e+05
1.44000000e+02	4.02496680e+05
1.45000000e+02	4.07058654e+05
1.46000000e+02	4.11647404e+05
1.47000000e+02	4.16262892e+05
1.48000000e+02	4.20905097e+05
1.49000000e+02	4.25573832e+05
1.50000000e+02	4.30269033e+05
1.51000000e+02	4.34990965e+05
1.52000000e+02	4.39739532e+05
1.53000000e+02	4.44514693e+05
1.54000000e+02	4.49316403e+05
1.55000000e+02	4.54144625e+05
1.56000000e+02	4.58999321e+05
1.57000000e+02	4.63880458e+05
1.58000000e+02	4.68788006e+05
1.59000000e+02	4.73721939e+05
1.60000000e+02	4.78682230e+05
1.61000000e+02	4.83668859e+05
1.62000000e+02	4.88681804e+05
1.63000000e+02	4.93721049e+05
1.64000000e+02	4.98786578e+05
1.65000000e+02	5.03878378e+05
1.66000000e+02	5.08996438e+05
1.67000000e+02	5.14140751e+05
1.68000000e+02	5.19311310e+05
1.69000000e+02	5.24508113e+05
1.70000000e+02	5.29731161e+05
1.71000000e+02	5.34980455e+05
1.72000000e+02	5.40256003e+05
1.73000000e+02	5.45557813e+05
1.74000000e+02	5.50885897e+05
1.75000000e+02	5.56240273e+05
1.76000000e+02	5.61620958e+05
1.77000000e+02	5.67027978e+05
1.78000000e+02	5.72461357e+05
1.79000000e+02	5.77921128e+05
1.80000000e+02	5.83407325e+05
1.81000000e+02	5.88919986e+05
1.82000000e+02	5.94459157e+05
1.83000000e+02	6.00024883e+05
1.84000000e+02	6.05617219e+05
1.85000000e+02	6.11236220e+05
1.86000000e+02	6.16881948e+05
1.87000000e+02	6.22554470e+05
1.88000000e+02	6.28253859e+05
1.89000000e+02	6.33980191e+05
1.90000000e+02	6.39733549e+05
1.91000000e+02	6.45514020e+05
1.92000000e+02	6.51321698e+05
1.93000000e+02	6.57156683e+05
1.94000000e+02	6.63019081e+05
1.95000000e+02	6.68909001e+05
1.96000000e+02	6.74826562e+05
1.97000000e+02	6.80771889e+05
1.98000000e+02	6.86745111e+05
1.99000000e+02	6.92746366e+05
2.00000000e+02	6.98775798e+05
2.01000000e+02	7.04833559e+05
2.02000000e+02	7.10919805e+05
2.03000000e+02	7.17034705e+05
2.04000000e+02	7.23178429e+05
2.05000000e+02	7.29351160e+05
2.06000000e+02	7.35553086e+05
2.07000000e+02	7.41784404e+05
2.08000000e+02	7.48045319e+05
2.09000000e+02	7.54336044e+05
2.10000000e+02	7.60656803e+05
2.11000000e+02	7.67007826e+05
2.12000000e+02	7.73389353e+05
2.13000000e+02	7.79801633e+05
2.14000000e+02	7.86244926e+05
2.15000000e+02	7.92719500e+05
2.16000000e+02	7.99225632e+05
2.17000000e+02	8.05763613e+05
2.18000000e+02	8.12333740e+05
2.19000000e+02	8.18936323e+05
2.20000000e+02	8.25571684e+05
2.21000000e+02	8.32240152e+05
2.22000000e+02	8.38942071e+05
2.23000000e+02	8.45677795e+05
2.24000000e+02	8.52447691e+05
2.25000000e+02	8.59252137e+05
2.26000000e+02	8.66091525e+05
2.27000000e+02	8.72966258e+05
2.28000000e+02	8.79876752e+05
2.29000000e+02	8.86823439e+05
2.30000000e+02	8.93806761e+05
2.31000000e+02	9.00827177e+05
2.32000000e+02	9.07885158e+05
2.33000000e+02	9.14981192e+05
2.34000000e+02	9.22115779e+05
2.35000000e+02	9.29289438e+05
2.36000000e+02	9.36502700e+05
2.37000000e+02	9.43756115e+05
2.38000000e+02	9.51050247e+05
2.39000000e+02	9.58385679e+05
2.40000000e+02	9.65763010e+05
2.41000000e+02	9.73182857e+05
2.42000000e+02	9.80645854e+05
2.43000000e+02	9.88152655e+05
2.44000000e+02	9.95703932e+05
2.45000000e+02	1.00330038e+06
2.46000000e+02	1.01094270e+06
2.47000000e+02	1.01863163e+06
2.48000000e+02	1.02636792e+06
2.49000000e+02	1.03415235e+06
2.50000000e+02	1.04198570e+06
2.51000000e+02	1.04986880e+06
2.52000000e+02	1.05780249e+06
2.53000000e+02	1.06578762e+06
2.54000000e+02	1.07382508e+06
2.55000000e+02	1.08191578e+06
2.56000000e+02	1.09006066e+06
2.57000000e+02	1.09826067e+06
2.58000000e+02	1.10651680e+06
2.59000000e+02	1.11483006e+06
2.60000000e+02	1.12320149e+06
2.61000000e+02	1.13163214e+06
2.62000000e+02	1.14012312e+06
2.63000000e+02	1.14867554e+06
2.64000000e+02	1.15729055e+06
2.65000000e+02	1.16596934e+06
2.66000000e+02	1.17471310e+06
2.67000000e+02	1.18352307e+06
2.68000000e+02	1.19240053e+06
2.69000000e+02	1.20134678e+06
2.70000000e+02	1.21036315e+06
2.71000000e+02	1.21945100e+06
2.72000000e+02	1.22861174e+06
2.73000000e+02	1.23784679e+06
2.74000000e+02	1.24715763e+06
2.75000000e+02	1.25654574e+06
2.76000000e+02	1.26601268e+06
2.77000000e+02	1.27556001e+06
2.78000000e+02	1.28518933e+06
2.79000000e+02	1.29490230e+06
2.80000000e+02	1.30470060e+06
2.81000000e+02	1.31458594e+06
2.82000000e+02	1.32456009e+06
2.83000000e+02	1.33462483e+06
2.84000000e+02	1.34478202e+06
2.85000000e+02	1.35503351e+06
2.86000000e+02	1.36538123e+06
2.87000000e+02	1.37582713e+06
2.88000000e+02	1.38637320e+06
2.89000000e+02	1.39702149e+06
2.90000000e+02	1.40777407e+06
2.91000000e+02	1.41863306e+06
2.92000000e+02	1.42960062e+06
2.93000000e+02	1.44067896e+06
2.94000000e+02	1.45187032e+06
2.95000000e+02	1.46317699e+06
2.96000000e+02	1.47460131e+06
2.97000000e+02	1.48614564e+06
2.98000000e+02	1.49781241e+06
2.99000000e+02	1.50960408e+06
3.00000000e+02	1.52152315e+06
3.01000000e+02	1.53357217e+06
3.02000000e+02	1.54575374e+06
3.03000000e+02	1.55807048e+06
3.04000000e+02	1.57052509e+06
3.05000000e+02	1.58312027e+06
3.06000000e+02	1.59585881e+06
3.07000000e+02	1.60874351e+06
3.08000000e+02	1.62177721e+06
3.09000000e+02	1.63496283e+06
3.10000000e+02	1.64830329e+06
3.11000000e+02	1.66180159e+06
3.12000000e+02	1.67546074e+06
3.13000000e+02	1.68928381e+06
3.14000000e+02	1.70327391e+06
3.15000000e+02	1.71743418e+06
3.16000000e+02	1.73176783e+06
3.17000000e+02	1.74627808e+06
3.18000000e+02	1.76096820e+06
3.19000000e+02	1.77584151e+06
3.20000000e+02	1.79090135e+06
3.21000000e+02	1.80615112e+06
3.22000000e+02	1.82159424e+06
3.23000000e+02	1.83723417e+06
3.24000000e+02	1.85307442e+06
3.25000000e+02	1.86911852e+06
3.26000000e+02	1.88537004e+06
3.27000000e+02	1.90183260e+06
3.28000000e+02	1.91850983e+06
3.29000000e+02	1.93540540e+06
3.30000000e+02	1.95252303e+06
3.31000000e+02	1.96986643e+06
3.32000000e+02	1.98743939e+06
3.33000000e+02	2.00524570e+06
3.34000000e+02	2.02328917e+06
3.35000000e+02	2.04157365e+06
3.36000000e+02	2.06010304e+06
3.37000000e+02	2.07888121e+06
3.38000000e+02	2.09791210e+06
3.39000000e+02	2.11719965e+06
3.40000000e+02	2.13674783e+06
3.41000000e+02	2.15656062e+06
3.42000000e+02	2.17664203e+06
3.43000000e+02	2.19699608e+06
3.44000000e+02	2.21762681e+06
3.45000000e+02	2.23853826e+06
3.46000000e+02	2.25973451e+06
3.47000000e+02	2.28121961e+06
3.48000000e+02	2.30299767e+06
3.49000000e+02	2.32507275e+06
3.50000000e+02	2.34744897e+06
3.51000000e+02	2.37013041e+06
3.52000000e+02	2.39312118e+06
3.53000000e+02	2.41642538e+06
3.54000000e+02	2.44004711e+06
3.55000000e+02	2.46399046e+06
3.56000000e+02	2.48825952e+06
3.57000000e+02	2.51285835e+06
3.58000000e+02	2.53779104e+06
3.59000000e+02	2.56306163e+06
3.60000000e+02	2.58867416e+06
3.61000000e+02	2.61463264e+06
3.62000000e+02	2.64094107e+06
3.63000000e+02	2.66760342e+06
3.64000000e+02	2.69462364e+06
3.65000000e+02	2.72200562e+06
3.66000000e+02	2.74975326e+06
3.67000000e+02	2.77787038e+06
3.68000000e+02	2.80636080e+06
3.69000000e+02	2.83522826e+06
3.70000000e+02	2.86447648e+06
3.71000000e+02	2.89410910e+06
3.72000000e+02	2.92412973e+06
3.73000000e+02	2.95454192e+06
3.74000000e+02	2.98534912e+06
3.75000000e+02	3.01655477e+06
3.76000000e+02	3.04816218e+06
3.77000000e+02	3.08017461e+06
3.78000000e+02	3.11259525e+06
3.79000000e+02	3.14542719e+06
3.80000000e+02	3.17867341e+06
3.81000000e+02	3.21233682e+06
3.82000000e+02	3.24642022e+06
3.83000000e+02	3.28092630e+06
3.84000000e+02	3.31585763e+06
3.85000000e+02	3.35121667e+06
3.86000000e+02	3.38700576e+06
3.87000000e+02	3.42322709e+06
3.88000000e+02	3.45988274e+06
3.89000000e+02	3.49697463e+06
3.90000000e+02	3.53450452e+06
3.91000000e+02	3.57247405e+06
3.92000000e+02	3.61088467e+06
3.93000000e+02	3.64973766e+06
3.94000000e+02	3.68903414e+06
3.95000000e+02	3.72877506e+06
3.96000000e+02	3.76896115e+06
3.97000000e+02	3.80959296e+06
3.98000000e+02	3.85067086e+06
3.99000000e+02	3.89219498e+06
4.00000000e+02	3.93416526e+06
4.01000000e+02	3.97658141e+06
4.02000000e+02	4.01944291e+06
4.03000000e+02	4.06274901e+06
4.04000000e+02	4.10649872e+06
4.05000000e+02	4.15069081e+06
4.06000000e+02	4.19532379e+06
4.07000000e+02	4.24039591e+06
4.08000000e+02	4.28590517e+06
4.09000000e+02	4.33184929e+06
4.10000000e+02	4.37822571e+06
4.11000000e+02	4.42503159e+06
4.12000000e+02	4.47226383e+06
4.13000000e+02	4.51991900e+06
4.14000000e+02	4.56799340e+06
4.15000000e+02	4.61648303e+06
4.16000000e+02	4.66538358e+06
4.17000000e+02	4.71469043e+06
4.18000000e+02	4.76439867e+06
4.19000000e+02	4.81450305e+06
4.20000000e+02	4.86499803e+06
4.21000000e+02	4.91587773e+06
4.22000000e+02	4.96713596e+06
4.23000000e+02	5.01876621e+06
4.24000000e+02	5.07076166e+06
4.25000000e+02	5.12311515e+06
4.26000000e+02	5.17581919e+06
4.27000000e+02	5.22886600e+06
4.28000000e+02	5.28224744e+06
4.29000000e+02	5.33595508e+06
4.30000000e+02	5.38998016e+06
4.31000000e+02	5.44431359e+06
4.32000000e+02	5.49894597e+06
4.33000000e+02	5.55386761e+06
4.34000000e+02	5.60906848e+06
4.35000000e+02	5.66453824e+06
4.36000000e+02	5.72026627e+06
4.37000000e+02	5.77624164e+06
4.38000000e+02	5.83245310e+06
4.39000000e+02	5.88888912e+06
4.40000000e+02	5.94553789e+06
4.41000000e+02	6.00238729e+06
4.42000000e+02	6.05942493e+06
4.43000000e+02	6.11663811e+06
4.44000000e+02	6.17401387e+06
4.45000000e+02	6.23153897e+06
4.46000000e+02	6.28919989e+06
4.47000000e+02	6.34698282e+06
4.48000000e+02	6.40487368e+06
4.49000000e+02	6.46285811e+06
4.50000000e+02	6.52092145e+06
4.51000000e+02	6.57904878e+06
4.52000000e+02	6.63722487e+06
4.53000000e+02	6.69543421e+06
4.54000000e+02	6.75366096e+06
4.55000000e+02	6.81188899e+06
4.56000000e+02	6.87010183e+06
4.57000000e+02	6.92828266e+06
4.58000000e+02	6.98641433e+06
4.59000000e+02	7.04447932e+06
4.60000000e+02	7.10245968e+06
4.61000000e+02	7.16033710e+06
4.62000000e+02	7.21809279e+06
4.63000000e+02	7.27570752e+06
4.64000000e+02	7.33316157e+06
4.65000000e+02	7.39043468e+06
4.66000000e+02	7.44750604e+06
4.67000000e+02	7.50435426e+06
4.68000000e+02	7.56095729e+06
4.69000000e+02	7.61729244e+06
4.70000000e+02	7.67333628e+06
4.71000000e+02	7.72906462e+06
4.72000000e+02	7.78445248e+06
4.73000000e+02	7.83947399e+06
4.74000000e+02	7.89410241e+06
4.75000000e+02	7.94831002e+06
4.76000000e+02	8.00206810e+06
4.77000000e+02	8.05534686e+06
4.78000000e+02	8.10811539e+06
4.79000000e+02	8.16034164e+06
4.80000000e+02	8.21199233e+06
4.81000000e+02	8.26303290e+06
4.82000000e+02	8.31342750e+06
4.83000000e+02	8.36313893e+06
4.84000000e+02	8.41212858e+06
4.85000000e+02	8.46035643e+06
4.86000000e+02	8.50778098e+06
4.87000000e+02	8.55435927e+06
4.88000000e+02	8.60004684e+06
4.89000000e+02	8.64479770e+06
4.90000000e+02	8.68856440e+06
4.91000000e+02	8.73129795e+06
4.92000000e+02	8.77294791e+06
4.93000000e+02	8.81346240e+06
4.94000000e+02	8.85278813e+06
4.95000000e+02	8.89087047e+06
4.96000000e+02	8.92765356e+06
4.97000000e+02	8.96308034e+06
4.98000000e+02	8.99709267e+06
4.99000000e+02	9.02963148e+06
5.00000000e+02	9.06063691e+06
5.01000000e+02	9.09004840e+06
5.02000000e+02	9.11780495e+06
5.03000000e+02	9.14384527e+06
5.04000000e+02	9.16810799e+06
5.05000000e+02	9.19053188e+06
5.06000000e+02	9.21105615e+06
5.07000000e+02	9.22962064e+06
5.08000000e+02	9.24616615e+06
5.09000000e+02	9.26063469e+06
5.10000000e+02	9.27296985e+06
5.11000000e+02	9.28311704e+06
5.12000000e+02	9.29102388e+06
5.13000000e+02	9.29664048e+06
5.14000000e+02	9.29991983e+06
5.15000000e+02	9.30081808e+06
5.16000000e+02	9.29929493e+06
5.17000000e+02	9.29531392e+06
5.18000000e+02	9.28884278e+06
5.19000000e+02	9.27985371e+06
5.20000000e+02	9.26832371e+06
5.21000000e+02	9.25423483e+06
5.22000000e+02	9.23757443e+06
5.23000000e+02	9.21833538e+06
5.24000000e+02	9.19651631e+06
5.25000000e+02	9.17212172e+06
5.26000000e+02	9.14516211e+06
5.27000000e+02	9.11565411e+06
5.28000000e+02	9.08362047e+06
5.29000000e+02	9.04909011e+06
5.30000000e+02	9.01209804e+06
5.31000000e+02	8.97268534e+06
5.32000000e+02	8.93089897e+06
5.33000000e+02	8.88679162e+06
5.34000000e+02	8.84042152e+06
5.35000000e+02	8.79185220e+06
5.36000000e+02	8.74115214e+06
5.37000000e+02	8.68839452e+06
5.38000000e+02	8.63365684e+06
5.39000000e+02	8.57702050e+06
5.40000000e+02	8.51857048e+06
5.41000000e+02	8.45839484e+06
5.42000000e+02	8.39658431e+06
5.43000000e+02	8.33323184e+06
5.44000000e+02	8.26843216e+06
5.45000000e+02	8.20228130e+06
5.46000000e+02	8.13487613e+06
5.47000000e+02	8.06631395e+06
5.48000000e+02	7.99669202e+06
5.49000000e+02	7.92610717e+06
5.50000000e+02	7.85465536e+06
5.51000000e+02	7.78243132e+06
5.52000000e+02	7.70952822e+06
5.53000000e+02	7.63603729e+06
5.54000000e+02	7.56204752e+06
5.55000000e+02	7.48764545e+06
5.56000000e+02	7.41291481e+06
5.57000000e+02	7.33793642e+06
5.58000000e+02	7.26278792e+06
5.59000000e+02	7.18754364e+06
5.60000000e+02	7.11227448e+06
5.61000000e+02	7.03704777e+06
5.62000000e+02	6.96192724e+06
5.63000000e+02	6.88697294e+06
5.64000000e+02	6.81224124e+06
5.65000000e+02	6.73778479e+06
5.66000000e+02	6.66365257e+06
5.67000000e+02	6.58988990e+06
5.68000000e+02	6.51653852e+06
5.69000000e+02	6.44363662e+06
5.70000000e+02	6.37121895e+06
5.71000000e+02	6.29931693e+06
5.72000000e+02	6.22795871e+06
5.73000000e+02	6.15716930e+06
5.74000000e+02	6.08697069e+06
5.75000000e+02	6.01738200e+06
5.76000000e+02	5.94841955e+06
5.77000000e+02	5.88009708e+06
5.78000000e+02	5.81242577e+06
5.79000000e+02	5.74541447e+06
5.80000000e+02	5.67906977e+06
5.81000000e+02	5.61339617e+06
5.82000000e+02	5.54839620e+06
5.83000000e+02	5.48407058e+06
5.84000000e+02	5.42041831e+06
5.85000000e+02	5.35743686e+06
5.86000000e+02	5.29512220e+06
5.87000000e+02	5.23346896e+06
5.88000000e+02	5.17247050e+06
5.89000000e+02	5.11211906e+06
5.90000000e+02	5.05240584e+06
5.91000000e+02	4.99332119e+06
5.92000000e+02	4.93485461e+06
5.93000000e+02	4.87699490e+06
5.94000000e+02	4.81973018e+06
5.95000000e+02	4.76304797e+06
5.96000000e+02	4.70693532e+06
5.97000000e+02	4.65137884e+06
5.98000000e+02	4.59636479e+06
5.99000000e+02	4.54187909e+06
6.00000000e+02	4.48790743e+06
6.01000000e+02	4.43443535e+06
6.02000000e+02	4.38144826e+06
6.03000000e+02	4.32893154e+06
6.04000000e+02	4.27687046e+06
6.05000000e+02	4.22525030e+06
6.06000000e+02	4.17405636e+06
6.07000000e+02	4.12327402e+06
6.08000000e+02	4.07288875e+06
6.09000000e+02	4.02288612e+06
6.10000000e+02	3.97325181e+06
6.11000000e+02	3.92397175e+06
6.12000000e+02	3.87503206e+06
6.13000000e+02	3.82641910e+06
6.14000000e+02	3.77811936e+06
6.15000000e+02	3.73011954e+06
6.16000000e+02	3.68240669e+06
6.17000000e+02	3.63496816e+06
6.18000000e+02	3.58779149e+06
6.19000000e+02	3.54086466e+06
6.20000000e+02	3.49417595e+06
6.21000000e+02	3.44771373e+06
6.22000000e+02	3.40146651e+06
6.23000000e+02	3.35542331e+06
6.24000000e+02	3.30957363e+06
6.25000000e+02	3.26390751e+06
6.26000000e+02	3.21841489e+06
6.27000000e+02	3.17308566e+06
6.28000000e+02	3.12791074e+06
6.29000000e+02	3.08288130e+06
6.30000000e+02	3.03798840e+06
6.31000000e+02	2.99322344e+06
6.32000000e+02	2.94857899e+06
6.33000000e+02	2.90404663e+06
6.34000000e+02	2.85961917e+06
6.35000000e+02	2.81529015e+06
6.36000000e+02	2.77105143e+06
6.37000000e+02	2.72689814e+06
6.38000000e+02	2.68282270e+06
6.39000000e+02	2.63881949e+06
6.40000000e+02	2.59488530e+06
6.41000000e+02	2.55100874e+06
6.42000000e+02	2.50719296e+06
6.43000000e+02	2.46343225e+06
6.44000000e+02	2.41968610e+06
6.45000000e+02	2.37606214e+06
6.46000000e+02	2.33240799e+06
6.47000000e+02	2.28883261e+06
6.48000000e+02	2.24522730e+06
6.49000000e+02	2.20172980e+06
6.50000000e+02	2.15817978e+06
6.51000000e+02	2.11472305e+06
6.52000000e+02	2.07123637e+06
6.53000000e+02	2.02780352e+06
6.54000000e+02	1.98439011e+06
6.55000000e+02	1.94096237e+06
6.56000000e+02	1.89760662e+06
6.57000000e+02	1.85419379e+06
6.58000000e+02	1.81084664e+06
6.59000000e+02	1.76749488e+06
