# Profil de ElecX au temps 1.000000000000012e-11 
# simu : /Volumes/MERCURE/JOBS/Zeq2_tanh_50mic_7p5e19_B0_20ps/GNU/ElecX@y-c.set
# col 0 : abscisse (um)
# col 1 : ElecX (V/m)
0.00000000e+00	0.00000000e+00
1.00000000e+00	1.66723874e+03
2.00000000e+00	6.81803833e+02
3.00000000e+00	8.37182660e+02
4.00000000e+00	1.92103202e+03
5.00000000e+00	2.33306913e+03
6.00000000e+00	2.79084082e+03
7.00000000e+00	3.25967667e+03
8.00000000e+00	3.73197061e+03
9.00000000e+00	4.20701462e+03
1.00000000e+01	4.68522756e+03
1.10000000e+01	5.16679353e+03
1.20000000e+01	5.65213272e+03
1.30000000e+01	6.14145130e+03
1.40000000e+01	6.63521770e+03
1.50000000e+01	7.13382703e+03
1.60000000e+01	7.63742944e+03
1.70000000e+01	8.14653676e+03
1.80000000e+01	8.66153641e+03
1.90000000e+01	9.18250686e+03
2.00000000e+01	9.71013885e+03
2.10000000e+01	1.02446019e+04
2.20000000e+01	1.07861892e+04
2.30000000e+01	1.13353943e+04
2.40000000e+01	1.18925060e+04
2.50000000e+01	1.24578962e+04
2.60000000e+01	1.30318345e+04
2.70000000e+01	1.36148044e+04
2.80000000e+01	1.42070945e+04
2.90000000e+01	1.48090806e+04
3.00000000e+01	1.54210911e+04
3.10000000e+01	1.60434714e+04
3.20000000e+01	1.66764610e+04
3.30000000e+01	1.73206808e+04
3.40000000e+01	1.79764563e+04
3.50000000e+01	1.86440892e+04
3.60000000e+01	1.93240158e+04
3.70000000e+01	2.00165477e+04
3.80000000e+01	2.07220638e+04
3.90000000e+01	2.14409329e+04
4.00000000e+01	2.21735109e+04
4.10000000e+01	2.29202046e+04
4.20000000e+01	2.36813665e+04
4.30000000e+01	2.44573777e+04
4.40000000e+01	2.52486497e+04
4.50000000e+01	2.60552670e+04
4.60000000e+01	2.68777522e+04
4.70000000e+01	2.77168454e+04
4.80000000e+01	2.85727644e+04
4.90000000e+01	2.94458632e+04
5.00000000e+01	3.03365118e+04
5.10000000e+01	3.12450891e+04
5.20000000e+01	3.21719798e+04
5.30000000e+01	3.31175716e+04
5.40000000e+01	3.40822539e+04
5.50000000e+01	3.50664181e+04
5.60000000e+01	3.60704563e+04
5.70000000e+01	3.70947616e+04
5.80000000e+01	3.81397281e+04
5.90000000e+01	3.92057503e+04
6.00000000e+01	4.02932237e+04
6.10000000e+01	4.14025441e+04
6.20000000e+01	4.25341080e+04
6.30000000e+01	4.36883120e+04
6.40000000e+01	4.48655535e+04
6.50000000e+01	4.60662299e+04
6.60000000e+01	4.72907387e+04
6.70000000e+01	4.85394778e+04
6.80000000e+01	4.98128447e+04
6.90000000e+01	5.11112373e+04
7.00000000e+01	5.24350529e+04
7.10000000e+01	5.37846890e+04
7.20000000e+01	5.51605423e+04
7.30000000e+01	5.65630091e+04
7.40000000e+01	5.79924856e+04
7.50000000e+01	5.94493668e+04
7.60000000e+01	6.09340471e+04
7.70000000e+01	6.24469201e+04
7.80000000e+01	6.39883785e+04
7.90000000e+01	6.55588134e+04
8.00000000e+01	6.71586156e+04
8.10000000e+01	6.87881738e+04
8.20000000e+01	7.04478754e+04
8.30000000e+01	7.21381066e+04
8.40000000e+01	7.38592515e+04
8.50000000e+01	7.56116927e+04
8.60000000e+01	7.73958108e+04
8.70000000e+01	7.92119843e+04
8.80000000e+01	8.10605898e+04
8.90000000e+01	8.29420013e+04
9.00000000e+01	8.48565906e+04
9.10000000e+01	8.68047269e+04
9.20000000e+01	8.87867770e+04
9.30000000e+01	9.08031045e+04
9.40000000e+01	9.28540705e+04
9.50000000e+01	9.49400331e+04
9.60000000e+01	9.70613469e+04
9.70000000e+01	9.92183638e+04
9.80000000e+01	1.01411432e+05
9.90000000e+01	1.03640896e+05
1.00000000e+02	1.05907098e+05
1.01000000e+02	1.08210374e+05
1.02000000e+02	1.10551058e+05
1.03000000e+02	1.12929481e+05
1.04000000e+02	1.15345967e+05
1.05000000e+02	1.17800839e+05
1.06000000e+02	1.20294413e+05
1.07000000e+02	1.22827002e+05
1.08000000e+02	1.25398916e+05
1.09000000e+02	1.28010457e+05
1.10000000e+02	1.30661924e+05
1.11000000e+02	1.33353613e+05
1.12000000e+02	1.36085812e+05
1.13000000e+02	1.38858806e+05
1.14000000e+02	1.41672874e+05
1.15000000e+02	1.44528292e+05
1.16000000e+02	1.47425327e+05
1.17000000e+02	1.50364244e+05
1.18000000e+02	1.53345301e+05
1.19000000e+02	1.56368751e+05
1.20000000e+02	1.59434841e+05
1.21000000e+02	1.62543813e+05
1.22000000e+02	1.65695905e+05
1.23000000e+02	1.68891344e+05
1.24000000e+02	1.72130358e+05
1.25000000e+02	1.75413164e+05
1.26000000e+02	1.78739976e+05
1.27000000e+02	1.82111000e+05
1.28000000e+02	1.85526439e+05
1.29000000e+02	1.88986486e+05
1.30000000e+02	1.92491332e+05
1.31000000e+02	1.96041159e+05
1.32000000e+02	1.99636145e+05
1.33000000e+02	2.03276460e+05
1.34000000e+02	2.06962270e+05
1.35000000e+02	2.10693733e+05
1.36000000e+02	2.14471003e+05
1.37000000e+02	2.18294225e+05
1.38000000e+02	2.22163540e+05
1.39000000e+02	2.26079084e+05
1.40000000e+02	2.30040983e+05
1.41000000e+02	2.34049362e+05
1.42000000e+02	2.38104335e+05
1.43000000e+02	2.42206014e+05
1.44000000e+02	2.46354504e+05
1.45000000e+02	2.50549901e+05
1.46000000e+02	2.54792300e+05
1.47000000e+02	2.59081787e+05
1.48000000e+02	2.63418444e+05
1.49000000e+02	2.67802345e+05
1.50000000e+02	2.72233560e+05
1.51000000e+02	2.76712155e+05
1.52000000e+02	2.81238187e+05
1.53000000e+02	2.85811710e+05
1.54000000e+02	2.90432772e+05
1.55000000e+02	2.95101416e+05
1.56000000e+02	2.99817680e+05
1.57000000e+02	3.04581595e+05
1.58000000e+02	3.09393191e+05
1.59000000e+02	3.14252490e+05
1.60000000e+02	3.19159510e+05
1.61000000e+02	3.24114265e+05
1.62000000e+02	3.29116764e+05
1.63000000e+02	3.34167012e+05
1.64000000e+02	3.39265010e+05
1.65000000e+02	3.44410754e+05
1.66000000e+02	3.49604236e+05
1.67000000e+02	3.54845447e+05
1.68000000e+02	3.60134370e+05
1.69000000e+02	3.65470989e+05
1.70000000e+02	3.70855280e+05
1.71000000e+02	3.76287221e+05
1.72000000e+02	3.81766782e+05
1.73000000e+02	3.87293934e+05
1.74000000e+02	3.92868644e+05
1.75000000e+02	3.98490876e+05
1.76000000e+02	4.04160591e+05
1.77000000e+02	4.09877751e+05
1.78000000e+02	4.15642314e+05
1.79000000e+02	4.21454236e+05
1.80000000e+02	4.27313471e+05
1.81000000e+02	4.33219974e+05
1.82000000e+02	4.39173697e+05
1.83000000e+02	4.45174593e+05
1.84000000e+02	4.51222611e+05
1.85000000e+02	4.57317702e+05
1.86000000e+02	4.63459817e+05
1.87000000e+02	4.69648906e+05
1.88000000e+02	4.75884919e+05
1.89000000e+02	4.82167807e+05
1.90000000e+02	4.88497521e+05
1.91000000e+02	4.94874015e+05
1.92000000e+02	5.01297240e+05
1.93000000e+02	5.07767153e+05
1.94000000e+02	5.14283709e+05
1.95000000e+02	5.20846867e+05
1.96000000e+02	5.27456586e+05
1.97000000e+02	5.34112830e+05
1.98000000e+02	5.40815563e+05
1.99000000e+02	5.47564753e+05
2.00000000e+02	5.54360372e+05
2.01000000e+02	5.61202393e+05
2.02000000e+02	5.68090795e+05
2.03000000e+02	5.75025559e+05
2.04000000e+02	5.82006671e+05
2.05000000e+02	5.89034121e+05
2.06000000e+02	5.96107904e+05
2.07000000e+02	6.03228020e+05
2.08000000e+02	6.10394474e+05
2.09000000e+02	6.17607275e+05
2.10000000e+02	6.24866441e+05
2.11000000e+02	6.32171992e+05
2.12000000e+02	6.39523958e+05
2.13000000e+02	6.46922373e+05
2.14000000e+02	6.54367279e+05
2.15000000e+02	6.61858724e+05
2.16000000e+02	6.69396766e+05
2.17000000e+02	6.76981468e+05
2.18000000e+02	6.84612902e+05
2.19000000e+02	6.92291148e+05
2.20000000e+02	7.00016296e+05
2.21000000e+02	7.07788442e+05
2.22000000e+02	7.15607695e+05
2.23000000e+02	7.23474170e+05
2.24000000e+02	7.31387993e+05
2.25000000e+02	7.39349303e+05
2.26000000e+02	7.47358244e+05
2.27000000e+02	7.55414975e+05
2.28000000e+02	7.63519665e+05
2.29000000e+02	7.71672494e+05
2.30000000e+02	7.79873654e+05
2.31000000e+02	7.88123349e+05
2.32000000e+02	7.96421795e+05
2.33000000e+02	8.04769222e+05
2.34000000e+02	8.13165872e+05
2.35000000e+02	8.21612001e+05
2.36000000e+02	8.30107879e+05
2.37000000e+02	8.38653789e+05
2.38000000e+02	8.47250030e+05
2.39000000e+02	8.55896916e+05
2.40000000e+02	8.64594775e+05
2.41000000e+02	8.73343951e+05
2.42000000e+02	8.82144805e+05
2.43000000e+02	8.90997715e+05
2.44000000e+02	8.99903073e+05
2.45000000e+02	9.08861291e+05
2.46000000e+02	9.17872798e+05
2.47000000e+02	9.26938042e+05
2.48000000e+02	9.36057487e+05
2.49000000e+02	9.45231618e+05
2.50000000e+02	9.54460941e+05
2.51000000e+02	9.63745978e+05
2.52000000e+02	9.73087276e+05
2.53000000e+02	9.82485398e+05
2.54000000e+02	9.91940933e+05
2.55000000e+02	1.00145449e+06
2.56000000e+02	1.01102670e+06
2.57000000e+02	1.02065821e+06
2.58000000e+02	1.03034971e+06
2.59000000e+02	1.04010190e+06
2.60000000e+02	1.04991549e+06
2.61000000e+02	1.05979126e+06
2.62000000e+02	1.06972996e+06
2.63000000e+02	1.07973241e+06
2.64000000e+02	1.08979944e+06
2.65000000e+02	1.09993190e+06
2.66000000e+02	1.11013068e+06
2.67000000e+02	1.12039670e+06
2.68000000e+02	1.13073090e+06
2.69000000e+02	1.14113426e+06
2.70000000e+02	1.15160779e+06
2.71000000e+02	1.16215251e+06
2.72000000e+02	1.17276951e+06
2.73000000e+02	1.18345989e+06
2.74000000e+02	1.19422478e+06
2.75000000e+02	1.20506536e+06
2.76000000e+02	1.21598284e+06
2.77000000e+02	1.22697846e+06
2.78000000e+02	1.23805350e+06
2.79000000e+02	1.24920928e+06
2.80000000e+02	1.26044716e+06
2.81000000e+02	1.27176855e+06
2.82000000e+02	1.28317488e+06
2.83000000e+02	1.29466763e+06
2.84000000e+02	1.30624832e+06
2.85000000e+02	1.31791853e+06
2.86000000e+02	1.32967986e+06
2.87000000e+02	1.34153398e+06
2.88000000e+02	1.35348259e+06
2.89000000e+02	1.36552743e+06
2.90000000e+02	1.37767031e+06
2.91000000e+02	1.38991308e+06
2.92000000e+02	1.40225764e+06
2.93000000e+02	1.41470594e+06
2.94000000e+02	1.42725998e+06
2.95000000e+02	1.43992183e+06
2.96000000e+02	1.45269360e+06
2.97000000e+02	1.46557744e+06
2.98000000e+02	1.47857560e+06
2.99000000e+02	1.49169036e+06
3.00000000e+02	1.50492405e+06
3.01000000e+02	1.51827908e+06
3.02000000e+02	1.53175792e+06
3.03000000e+02	1.54536309e+06
3.04000000e+02	1.55909718e+06
3.05000000e+02	1.57296284e+06
3.06000000e+02	1.58696280e+06
3.07000000e+02	1.60109983e+06
3.08000000e+02	1.61537679e+06
3.09000000e+02	1.62979661e+06
3.10000000e+02	1.64436227e+06
3.11000000e+02	1.65907683e+06
3.12000000e+02	1.67394342e+06
3.13000000e+02	1.68896524e+06
3.14000000e+02	1.70414557e+06
3.15000000e+02	1.71948775e+06
3.16000000e+02	1.73499521e+06
3.17000000e+02	1.75067144e+06
3.18000000e+02	1.76652001e+06
3.19000000e+02	1.78254457e+06
3.20000000e+02	1.79874884e+06
3.21000000e+02	1.81513661e+06
3.22000000e+02	1.83171176e+06
3.23000000e+02	1.84847824e+06
3.24000000e+02	1.86544009e+06
3.25000000e+02	1.88260139e+06
3.26000000e+02	1.89996635e+06
3.27000000e+02	1.91753921e+06
3.28000000e+02	1.93532431e+06
3.29000000e+02	1.95332606e+06
3.30000000e+02	1.97154896e+06
3.31000000e+02	1.98999756e+06
3.32000000e+02	2.00867650e+06
3.33000000e+02	2.02759051e+06
3.34000000e+02	2.04674435e+06
3.35000000e+02	2.06614290e+06
3.36000000e+02	2.08579108e+06
3.37000000e+02	2.10569389e+06
3.38000000e+02	2.12585640e+06
3.39000000e+02	2.14628375e+06
3.40000000e+02	2.16698115e+06
3.41000000e+02	2.18795385e+06
3.42000000e+02	2.20920718e+06
3.43000000e+02	2.23074654e+06
3.44000000e+02	2.25257738e+06
3.45000000e+02	2.27470519e+06
3.46000000e+02	2.29713553e+06
3.47000000e+02	2.31987402e+06
3.48000000e+02	2.34292630e+06
3.49000000e+02	2.36629808e+06
3.50000000e+02	2.38999511e+06
3.51000000e+02	2.41402316e+06
3.52000000e+02	2.43838805e+06
3.53000000e+02	2.46309565e+06
3.54000000e+02	2.48815182e+06
3.55000000e+02	2.51356247e+06
3.56000000e+02	2.53933353e+06
3.57000000e+02	2.56547095e+06
3.58000000e+02	2.59198068e+06
3.59000000e+02	2.61886869e+06
3.60000000e+02	2.64614096e+06
3.61000000e+02	2.67380344e+06
3.62000000e+02	2.70186211e+06
3.63000000e+02	2.73032292e+06
3.64000000e+02	2.75919181e+06
3.65000000e+02	2.78847470e+06
3.66000000e+02	2.81817749e+06
3.67000000e+02	2.84830604e+06
3.68000000e+02	2.87886617e+06
3.69000000e+02	2.90986368e+06
3.70000000e+02	2.94130428e+06
3.71000000e+02	2.97319368e+06
3.72000000e+02	3.00553747e+06
3.73000000e+02	3.03834123e+06
3.74000000e+02	3.07161041e+06
3.75000000e+02	3.10535044e+06
3.76000000e+02	3.13956660e+06
3.77000000e+02	3.17426413e+06
3.78000000e+02	3.20944814e+06
3.79000000e+02	3.24512362e+06
3.80000000e+02	3.28129548e+06
3.81000000e+02	3.31796848e+06
3.82000000e+02	3.35514726e+06
3.83000000e+02	3.39283631e+06
3.84000000e+02	3.43103998e+06
3.85000000e+02	3.46976246e+06
3.86000000e+02	3.50900779e+06
3.87000000e+02	3.54877982e+06
3.88000000e+02	3.58908222e+06
3.89000000e+02	3.62991850e+06
3.90000000e+02	3.67129193e+06
3.91000000e+02	3.71320559e+06
3.92000000e+02	3.75566236e+06
3.93000000e+02	3.79866486e+06
3.94000000e+02	3.84221551e+06
3.95000000e+02	3.88631645e+06
3.96000000e+02	3.93096960e+06
3.97000000e+02	3.97617660e+06
3.98000000e+02	4.02193880e+06
3.99000000e+02	4.06825729e+06
4.00000000e+02	4.11513287e+06
4.01000000e+02	4.16256600e+06
4.02000000e+02	4.21055687e+06
4.03000000e+02	4.25910532e+06
4.04000000e+02	4.30821087e+06
4.05000000e+02	4.35787269e+06
4.06000000e+02	4.40808959e+06
4.07000000e+02	4.45886003e+06
4.08000000e+02	4.51018210e+06
4.09000000e+02	4.56205350e+06
4.10000000e+02	4.61447153e+06
4.11000000e+02	4.66743311e+06
4.12000000e+02	4.72093475e+06
4.13000000e+02	4.77497253e+06
4.14000000e+02	4.82954211e+06
4.15000000e+02	4.88463873e+06
4.16000000e+02	4.94025716e+06
4.17000000e+02	4.99639177e+06
4.18000000e+02	5.05303642e+06
4.19000000e+02	5.11018456e+06
4.20000000e+02	5.16782915e+06
4.21000000e+02	5.22596268e+06
4.22000000e+02	5.28457717e+06
4.23000000e+02	5.34366416e+06
4.24000000e+02	5.40321471e+06
4.25000000e+02	5.46321939e+06
4.26000000e+02	5.52366830e+06
4.27000000e+02	5.58455103e+06
4.28000000e+02	5.64585670e+06
4.29000000e+02	5.70757392e+06
4.30000000e+02	5.76969084e+06
4.31000000e+02	5.83219509e+06
4.32000000e+02	5.89507384e+06
4.33000000e+02	5.95831377e+06
4.34000000e+02	6.02190108e+06
4.35000000e+02	6.08582149e+06
4.36000000e+02	6.15006026e+06
4.37000000e+02	6.21460215e+06
4.38000000e+02	6.27943150e+06
4.39000000e+02	6.34453216e+06
4.40000000e+02	6.40988752e+06
4.41000000e+02	6.47548056e+06
4.42000000e+02	6.54129377e+06
4.43000000e+02	6.60730922e+06
4.44000000e+02	6.67350856e+06
4.45000000e+02	6.73987297e+06
4.46000000e+02	6.80638323e+06
4.47000000e+02	6.87301969e+06
4.48000000e+02	6.93976226e+06
4.49000000e+02	7.00659043e+06
4.50000000e+02	7.07348327e+06
4.51000000e+02	7.14041941e+06
4.52000000e+02	7.20737705e+06
4.53000000e+02	7.27433394e+06
4.54000000e+02	7.34126738e+06
4.55000000e+02	7.40815422e+06
4.56000000e+02	7.47497082e+06
4.57000000e+02	7.54169305e+06
4.58000000e+02	7.60829626e+06
4.59000000e+02	7.67475528e+06
4.60000000e+02	7.74104436e+06
4.61000000e+02	7.80713716e+06
4.62000000e+02	7.87300673e+06
4.63000000e+02	7.93862544e+06
4.64000000e+02	8.00396497e+06
4.65000000e+02	8.06899626e+06
4.66000000e+02	8.13368943e+06
4.67000000e+02	8.19801379e+06
4.68000000e+02	8.26193774e+06
4.69000000e+02	8.32542871e+06
4.70000000e+02	8.38845315e+06
4.71000000e+02	8.45097641e+06
4.72000000e+02	8.51296270e+06
4.73000000e+02	8.57437504e+06
4.74000000e+02	8.63517515e+06
4.75000000e+02	8.69532345e+06
4.76000000e+02	8.75477891e+06
4.77000000e+02	8.81349906e+06
4.78000000e+02	8.87143987e+06
4.79000000e+02	8.92855571e+06
4.80000000e+02	8.98479932e+06
4.81000000e+02	9.04012170e+06
4.82000000e+02	9.09447213e+06
4.83000000e+02	9.14779805e+06
4.84000000e+02	9.20004514e+06
4.85000000e+02	9.25115719e+06
4.86000000e+02	9.30107615e+06
4.87000000e+02	9.34974216e+06
4.88000000e+02	9.39709352e+06
4.89000000e+02	9.44306672e+06
4.90000000e+02	9.48759658e+06
4.91000000e+02	9.53061621e+06
4.92000000e+02	9.57205720e+06
4.93000000e+02	9.61184968e+06
4.94000000e+02	9.64992248e+06
4.95000000e+02	9.68620330e+06
4.96000000e+02	9.72061889e+06
4.97000000e+02	9.75309524e+06
4.98000000e+02	9.78355790e+06
4.99000000e+02	9.81193213e+06
5.00000000e+02	9.83814331e+06
5.01000000e+02	9.86211718e+06
5.02000000e+02	9.88378020e+06
5.03000000e+02	9.90305994e+06
5.04000000e+02	9.91988543e+06
5.05000000e+02	9.93418762e+06
5.06000000e+02	9.94589974e+06
5.07000000e+02	9.95495776e+06
5.08000000e+02	9.96130087e+06
5.09000000e+02	9.96487188e+06
5.10000000e+02	9.96561771e+06
5.11000000e+02	9.96348981e+06
5.12000000e+02	9.95844465e+06
5.13000000e+02	9.95044407e+06
5.14000000e+02	9.93945577e+06
5.15000000e+02	9.92545367e+06
5.16000000e+02	9.90841822e+06
5.17000000e+02	9.88833678e+06
5.18000000e+02	9.86520386e+06
5.19000000e+02	9.83902139e+06
5.20000000e+02	9.80979885e+06
5.21000000e+02	9.77755346e+06
5.22000000e+02	9.74231021e+06
5.23000000e+02	9.70410188e+06
5.24000000e+02	9.66296903e+06
5.25000000e+02	9.61895983e+06
5.26000000e+02	9.57212996e+06
5.27000000e+02	9.52254231e+06
5.28000000e+02	9.47026675e+06
5.29000000e+02	9.41537974e+06
5.30000000e+02	9.35796395e+06
5.31000000e+02	9.29810785e+06
5.32000000e+02	9.23590515e+06
5.33000000e+02	9.17145434e+06
5.34000000e+02	9.10485810e+06
5.35000000e+02	9.03622272e+06
5.36000000e+02	8.96565755e+06
5.37000000e+02	8.89327431e+06
5.38000000e+02	8.81918657e+06
5.39000000e+02	8.74350906e+06
5.40000000e+02	8.66635714e+06
5.41000000e+02	8.58784617e+06
5.42000000e+02	8.50809095e+06
5.43000000e+02	8.42720522e+06
5.44000000e+02	8.34530112e+06
5.45000000e+02	8.26248873e+06
5.46000000e+02	8.17887562e+06
5.47000000e+02	8.09456648e+06
5.48000000e+02	8.00966274e+06
5.49000000e+02	7.92426227e+06
5.50000000e+02	7.83845911e+06
5.51000000e+02	7.75234324e+06
5.52000000e+02	7.66600039e+06
5.53000000e+02	7.57951192e+06
5.54000000e+02	7.49295468e+06
5.55000000e+02	7.40640097e+06
5.56000000e+02	7.31991848e+06
5.57000000e+02	7.23357033e+06
5.58000000e+02	7.14741507e+06
5.59000000e+02	7.06150676e+06
5.60000000e+02	6.97589503e+06
5.61000000e+02	6.89062522e+06
5.62000000e+02	6.80573847e+06
5.63000000e+02	6.72127188e+06
5.64000000e+02	6.63725867e+06
5.65000000e+02	6.55372834e+06
5.66000000e+02	6.47070686e+06
5.67000000e+02	6.38821683e+06
5.68000000e+02	6.30627768e+06
5.69000000e+02	6.22490587e+06
5.70000000e+02	6.14411508e+06
5.71000000e+02	6.06391638e+06
5.72000000e+02	5.98431846e+06
5.73000000e+02	5.90532778e+06
5.74000000e+02	5.82694877e+06
5.75000000e+02	5.74918398e+06
5.76000000e+02	5.67203429e+06
5.77000000e+02	5.59549903e+06
5.78000000e+02	5.51957621e+06
5.79000000e+02	5.44426260e+06
5.80000000e+02	5.36955391e+06
5.81000000e+02	5.29544490e+06
5.82000000e+02	5.22192951e+06
5.83000000e+02	5.14900096e+06
5.84000000e+02	5.07665191e+06
5.85000000e+02	5.00487455e+06
5.86000000e+02	4.93366069e+06
5.87000000e+02	4.86300184e+06
5.88000000e+02	4.79288924e+06
5.89000000e+02	4.72331399e+06
5.90000000e+02	4.65426716e+06
5.91000000e+02	4.58573984e+06
5.92000000e+02	4.51772319e+06
5.93000000e+02	4.45020845e+06
5.94000000e+02	4.38318693e+06
5.95000000e+02	4.31665011e+06
5.96000000e+02	4.25058976e+06
5.97000000e+02	4.18499801e+06
5.98000000e+02	4.11986734e+06
5.99000000e+02	4.05519043e+06
6.00000000e+02	3.99096019e+06
6.01000000e+02	3.92716994e+06
6.02000000e+02	3.86381365e+06
6.03000000e+02	3.80088587e+06
6.04000000e+02	3.73838129e+06
6.05000000e+02	3.67629473e+06
6.06000000e+02	3.61462168e+06
6.07000000e+02	3.55335864e+06
6.08000000e+02	3.49250264e+06
6.09000000e+02	3.43205057e+06
6.10000000e+02	3.37199985e+06
6.11000000e+02	3.31234921e+06
6.12000000e+02	3.25309752e+06
6.13000000e+02	3.19424290e+06
6.14000000e+02	3.13578515e+06
6.15000000e+02	3.07772680e+06
6.16000000e+02	3.02006834e+06
6.17000000e+02	2.96280902e+06
6.18000000e+02	2.90595395e+06
6.19000000e+02	2.84950593e+06
6.20000000e+02	2.79346119e+06
6.21000000e+02	2.73783127e+06
6.22000000e+02	2.68262404e+06
6.23000000e+02	2.62782730e+06
6.24000000e+02	2.57346653e+06
6.25000000e+02	2.51953381e+06
6.26000000e+02	2.46603968e+06
6.27000000e+02	2.41298663e+06
6.28000000e+02	2.36039939e+06
6.29000000e+02	2.30826080e+06
6.30000000e+02	2.25657558e+06
6.31000000e+02	2.20540366e+06
6.32000000e+02	2.15467564e+06
6.33000000e+02	2.10446565e+06
6.34000000e+02	2.05474760e+06
6.35000000e+02	2.00553267e+06
6.36000000e+02	1.95686157e+06
6.37000000e+02	1.90867934e+06
6.38000000e+02	1.86108374e+06
6.39000000e+02	1.81398657e+06
6.40000000e+02	1.76748594e+06
6.41000000e+02	1.72151374e+06
6.42000000e+02	1.67614544e+06
6.43000000e+02	1.63133207e+06
6.44000000e+02	1.58712856e+06
6.45000000e+02	1.54351060e+06
6.46000000e+02	1.50050550e+06
6.47000000e+02	1.45810027e+06
6.48000000e+02	1.41632377e+06
6.49000000e+02	1.37516165e+06
6.50000000e+02	1.33463550e+06
6.51000000e+02	1.29473514e+06
6.52000000e+02	1.25548139e+06
6.53000000e+02	1.21685845e+06
6.54000000e+02	1.17888377e+06
6.55000000e+02	1.14154735e+06
6.56000000e+02	1.10486146e+06
6.57000000e+02	1.06881386e+06
6.58000000e+02	1.03341843e+06
6.59000000e+02	9.98655116e+05
