# Profil de ElecX au temps 1.500000000000013e-11 
# simu : /Volumes/MERCURE/JOBS/Zeq2_tanh_50mic_7p5e19_B0_20ps/GNU/ElecX@y-c.set
# col 0 : abscisse (um)
# col 1 : ElecX (V/m)
0.00000000e+00	0.00000000e+00
1.00000000e+00	5.42121177e+03
2.00000000e+00	6.88626030e+03
3.00000000e+00	1.00673634e+04
4.00000000e+00	1.46200646e+04
5.00000000e+00	1.81627528e+04
6.00000000e+00	2.17774197e+04
7.00000000e+00	2.54051776e+04
8.00000000e+00	2.90348504e+04
9.00000000e+00	3.26636662e+04
1.00000000e+01	3.62940416e+04
1.10000000e+01	3.99242307e+04
1.20000000e+01	4.35551525e+04
1.30000000e+01	4.71853976e+04
1.40000000e+01	5.08164318e+04
1.50000000e+01	5.44485460e+04
1.60000000e+01	5.80799737e+04
1.70000000e+01	6.17121561e+04
1.80000000e+01	6.53459238e+04
1.90000000e+01	6.89781221e+04
2.00000000e+01	7.26126278e+04
2.10000000e+01	7.62475262e+04
2.20000000e+01	7.98820732e+04
2.30000000e+01	8.35179931e+04
2.40000000e+01	8.71545500e+04
2.50000000e+01	9.07921051e+04
2.60000000e+01	9.44293501e+04
2.70000000e+01	9.80681820e+04
2.80000000e+01	1.01707665e+05
2.90000000e+01	1.05348143e+05
3.00000000e+01	1.08989010e+05
3.10000000e+01	1.12630875e+05
3.20000000e+01	1.16273896e+05
3.30000000e+01	1.19917761e+05
3.40000000e+01	1.23562939e+05
3.50000000e+01	1.27208181e+05
3.60000000e+01	1.30855327e+05
3.70000000e+01	1.34503278e+05
3.80000000e+01	1.38152448e+05
3.90000000e+01	1.41802882e+05
4.00000000e+01	1.45453865e+05
4.10000000e+01	1.49106746e+05
4.20000000e+01	1.52760740e+05
4.30000000e+01	1.56415880e+05
4.40000000e+01	1.60072759e+05
4.50000000e+01	1.63730192e+05
4.60000000e+01	1.67389751e+05
4.70000000e+01	1.71050616e+05
4.80000000e+01	1.74712872e+05
4.90000000e+01	1.78376817e+05
5.00000000e+01	1.82042167e+05
5.10000000e+01	1.85709002e+05
5.20000000e+01	1.89377852e+05
5.30000000e+01	1.93048145e+05
5.40000000e+01	1.96720273e+05
5.50000000e+01	2.00394317e+05
5.60000000e+01	2.04069913e+05
5.70000000e+01	2.07747416e+05
5.80000000e+01	2.11426953e+05
5.90000000e+01	2.15108439e+05
6.00000000e+01	2.18791922e+05
6.10000000e+01	2.22477578e+05
6.20000000e+01	2.26165138e+05
6.30000000e+01	2.29854706e+05
6.40000000e+01	2.33546791e+05
6.50000000e+01	2.37241034e+05
6.60000000e+01	2.40937534e+05
6.70000000e+01	2.44636362e+05
6.80000000e+01	2.48337791e+05
6.90000000e+01	2.52041215e+05
7.00000000e+01	2.55747495e+05
7.10000000e+01	2.59456230e+05
7.20000000e+01	2.63167584e+05
7.30000000e+01	2.66881598e+05
7.40000000e+01	2.70598320e+05
7.50000000e+01	2.74318035e+05
7.60000000e+01	2.78039968e+05
7.70000000e+01	2.81765292e+05
7.80000000e+01	2.85493458e+05
7.90000000e+01	2.89224589e+05
8.00000000e+01	2.92958834e+05
8.10000000e+01	2.96696161e+05
8.20000000e+01	3.00436098e+05
8.30000000e+01	3.04180321e+05
8.40000000e+01	3.07927442e+05
8.50000000e+01	3.11677870e+05
8.60000000e+01	3.15431833e+05
8.70000000e+01	3.19189141e+05
8.80000000e+01	3.22950072e+05
8.90000000e+01	3.26714669e+05
9.00000000e+01	3.30483038e+05
9.10000000e+01	3.34254954e+05
9.20000000e+01	3.38030776e+05
9.30000000e+01	3.41810587e+05
9.40000000e+01	3.45594345e+05
9.50000000e+01	3.49382148e+05
9.60000000e+01	3.53174074e+05
9.70000000e+01	3.56970215e+05
9.80000000e+01	3.60770584e+05
9.90000000e+01	3.64575416e+05
1.00000000e+02	3.68384501e+05
1.01000000e+02	3.72198075e+05
1.02000000e+02	3.76016382e+05
1.03000000e+02	3.79839363e+05
1.04000000e+02	3.83666930e+05
1.05000000e+02	3.87499371e+05
1.06000000e+02	3.91336845e+05
1.07000000e+02	3.95179113e+05
1.08000000e+02	3.99026570e+05
1.09000000e+02	4.02879269e+05
1.10000000e+02	4.06736930e+05
1.11000000e+02	4.10600377e+05
1.12000000e+02	4.14468648e+05
1.13000000e+02	4.18343005e+05
1.14000000e+02	4.22222597e+05
1.15000000e+02	4.26108165e+05
1.16000000e+02	4.29999219e+05
1.17000000e+02	4.33896527e+05
1.18000000e+02	4.37799431e+05
1.19000000e+02	4.41708826e+05
1.20000000e+02	4.45624041e+05
1.21000000e+02	4.49545774e+05
1.22000000e+02	4.53473834e+05
1.23000000e+02	4.57408296e+05
1.24000000e+02	4.61349591e+05
1.25000000e+02	4.65297284e+05
1.26000000e+02	4.69251967e+05
1.27000000e+02	4.73213651e+05
1.28000000e+02	4.77182120e+05
1.29000000e+02	4.81157936e+05
1.30000000e+02	4.85140990e+05
1.31000000e+02	4.89131252e+05
1.32000000e+02	4.93129151e+05
1.33000000e+02	4.97134681e+05
1.34000000e+02	5.01147859e+05
1.35000000e+02	5.05168878e+05
1.36000000e+02	5.09197970e+05
1.37000000e+02	5.13235148e+05
1.38000000e+02	5.17280531e+05
1.39000000e+02	5.21334206e+05
1.40000000e+02	5.25396542e+05
1.41000000e+02	5.29467405e+05
1.42000000e+02	5.33547032e+05
1.43000000e+02	5.37635548e+05
1.44000000e+02	5.41733142e+05
1.45000000e+02	5.45839922e+05
1.46000000e+02	5.49956173e+05
1.47000000e+02	5.54081811e+05
1.48000000e+02	5.58217092e+05
1.49000000e+02	5.62362103e+05
1.50000000e+02	5.66517093e+05
1.51000000e+02	5.70682079e+05
1.52000000e+02	5.74857437e+05
1.53000000e+02	5.79043194e+05
1.54000000e+02	5.83239446e+05
1.55000000e+02	5.87446689e+05
1.56000000e+02	5.91664480e+05
1.57000000e+02	5.95893688e+05
1.58000000e+02	6.00133937e+05
1.59000000e+02	6.04385900e+05
1.60000000e+02	6.08649253e+05
1.61000000e+02	6.12924562e+05
1.62000000e+02	6.17211835e+05
1.63000000e+02	6.21511344e+05
1.64000000e+02	6.25823334e+05
1.65000000e+02	6.30147713e+05
1.66000000e+02	6.34485096e+05
1.67000000e+02	6.38835537e+05
1.68000000e+02	6.43198966e+05
1.69000000e+02	6.47576061e+05
1.70000000e+02	6.51966800e+05
1.71000000e+02	6.56371345e+05
1.72000000e+02	6.60790050e+05
1.73000000e+02	6.65223122e+05
1.74000000e+02	6.69670760e+05
1.75000000e+02	6.74133329e+05
1.76000000e+02	6.78610837e+05
1.77000000e+02	6.83103843e+05
1.78000000e+02	6.87612305e+05
1.79000000e+02	6.92136762e+05
1.80000000e+02	6.96677220e+05
1.81000000e+02	7.01234210e+05
1.82000000e+02	7.05807755e+05
1.83000000e+02	7.10398366e+05
1.84000000e+02	7.15006228e+05
1.85000000e+02	7.19631611e+05
1.86000000e+02	7.24274866e+05
1.87000000e+02	7.28936295e+05
1.88000000e+02	7.33616187e+05
1.89000000e+02	7.38314925e+05
1.90000000e+02	7.43032732e+05
1.91000000e+02	7.47770049e+05
1.92000000e+02	7.52527219e+05
1.93000000e+02	7.57304464e+05
1.94000000e+02	7.62102311e+05
1.95000000e+02	7.66921000e+05
1.96000000e+02	7.71760976e+05
1.97000000e+02	7.76622570e+05
1.98000000e+02	7.81506236e+05
1.99000000e+02	7.86412280e+05
2.00000000e+02	7.91341208e+05
2.01000000e+02	7.96293311e+05
2.02000000e+02	8.01269139e+05
2.03000000e+02	8.06269061e+05
2.04000000e+02	8.11293488e+05
2.05000000e+02	8.16342950e+05
2.06000000e+02	8.21417862e+05
2.07000000e+02	8.26518654e+05
2.08000000e+02	8.31645889e+05
2.09000000e+02	8.36800000e+05
2.10000000e+02	8.41981494e+05
2.11000000e+02	8.47190890e+05
2.12000000e+02	8.52428714e+05
2.13000000e+02	8.57695476e+05
2.14000000e+02	8.62991735e+05
2.15000000e+02	8.68318015e+05
2.16000000e+02	8.73674920e+05
2.17000000e+02	8.79062997e+05
2.18000000e+02	8.84482841e+05
2.19000000e+02	8.89935051e+05
2.20000000e+02	8.95420226e+05
2.21000000e+02	9.00939005e+05
2.22000000e+02	9.06492016e+05
2.23000000e+02	9.12079901e+05
2.24000000e+02	9.17703318e+05
2.25000000e+02	9.23362950e+05
2.26000000e+02	9.29059476e+05
2.27000000e+02	9.34793590e+05
2.28000000e+02	9.40566009e+05
2.29000000e+02	9.46377457e+05
2.30000000e+02	9.52228671e+05
2.31000000e+02	9.58120404e+05
2.32000000e+02	9.64053384e+05
2.33000000e+02	9.70028310e+05
2.34000000e+02	9.76046180e+05
2.35000000e+02	9.82107742e+05
2.36000000e+02	9.88213808e+05
2.37000000e+02	9.94365205e+05
2.38000000e+02	1.00056278e+06
2.39000000e+02	1.00680740e+06
2.40000000e+02	1.01309995e+06
2.41000000e+02	1.01944132e+06
2.42000000e+02	1.02583242e+06
2.43000000e+02	1.03227418e+06
2.44000000e+02	1.03876754e+06
2.45000000e+02	1.04531341e+06
2.46000000e+02	1.05191272e+06
2.47000000e+02	1.05856661e+06
2.48000000e+02	1.06527606e+06
2.49000000e+02	1.07204207e+06
2.50000000e+02	1.07886568e+06
2.51000000e+02	1.08574793e+06
2.52000000e+02	1.09268988e+06
2.53000000e+02	1.09969263e+06
2.54000000e+02	1.10675727e+06
2.55000000e+02	1.11388491e+06
2.56000000e+02	1.12107657e+06
2.57000000e+02	1.12833357e+06
2.58000000e+02	1.13565704e+06
2.59000000e+02	1.14304815e+06
2.60000000e+02	1.15050809e+06
2.61000000e+02	1.15803811e+06
2.62000000e+02	1.16563943e+06
2.63000000e+02	1.17331332e+06
2.64000000e+02	1.18106102e+06
2.65000000e+02	1.18888384e+06
2.66000000e+02	1.19678306e+06
2.67000000e+02	1.20476000e+06
2.68000000e+02	1.21281600e+06
2.69000000e+02	1.22095241e+06
2.70000000e+02	1.22917059e+06
2.71000000e+02	1.23747194e+06
2.72000000e+02	1.24585786e+06
2.73000000e+02	1.25432976e+06
2.74000000e+02	1.26288909e+06
2.75000000e+02	1.27153729e+06
2.76000000e+02	1.28027585e+06
2.77000000e+02	1.28910625e+06
2.78000000e+02	1.29802999e+06
2.79000000e+02	1.30704861e+06
2.80000000e+02	1.31616364e+06
2.81000000e+02	1.32537664e+06
2.82000000e+02	1.33468920e+06
2.83000000e+02	1.34410290e+06
2.84000000e+02	1.35361936e+06
2.85000000e+02	1.36324021e+06
2.86000000e+02	1.37296710e+06
2.87000000e+02	1.38280170e+06
2.88000000e+02	1.39274570e+06
2.89000000e+02	1.40280078e+06
2.90000000e+02	1.41296868e+06
2.91000000e+02	1.42325112e+06
2.92000000e+02	1.43364988e+06
2.93000000e+02	1.44416671e+06
2.94000000e+02	1.45480341e+06
2.95000000e+02	1.46556178e+06
2.96000000e+02	1.47644366e+06
2.97000000e+02	1.48745089e+06
2.98000000e+02	1.49858533e+06
2.99000000e+02	1.50984885e+06
3.00000000e+02	1.52124336e+06
3.01000000e+02	1.53277077e+06
3.02000000e+02	1.54443302e+06
3.03000000e+02	1.55623205e+06
3.04000000e+02	1.56816984e+06
3.05000000e+02	1.58024838e+06
3.06000000e+02	1.59246968e+06
3.07000000e+02	1.60483575e+06
3.08000000e+02	1.61734864e+06
3.09000000e+02	1.63001042e+06
3.10000000e+02	1.64282316e+06
3.11000000e+02	1.65578897e+06
3.12000000e+02	1.66890995e+06
3.13000000e+02	1.68218824e+06
3.14000000e+02	1.69562601e+06
3.15000000e+02	1.70922541e+06
3.16000000e+02	1.72298864e+06
3.17000000e+02	1.73691790e+06
3.18000000e+02	1.75101542e+06
3.19000000e+02	1.76528344e+06
3.20000000e+02	1.77972422e+06
3.21000000e+02	1.79434004e+06
3.22000000e+02	1.80913319e+06
3.23000000e+02	1.82410599e+06
3.24000000e+02	1.83926076e+06
3.25000000e+02	1.85459985e+06
3.26000000e+02	1.87012562e+06
3.27000000e+02	1.88584045e+06
3.28000000e+02	1.90174674e+06
3.29000000e+02	1.91784688e+06
3.30000000e+02	1.93414331e+06
3.31000000e+02	1.95063846e+06
3.32000000e+02	1.96733479e+06
3.33000000e+02	1.98423476e+06
3.34000000e+02	2.00134086e+06
3.35000000e+02	2.01865557e+06
3.36000000e+02	2.03618140e+06
3.37000000e+02	2.05392087e+06
3.38000000e+02	2.07187650e+06
3.39000000e+02	2.09005083e+06
3.40000000e+02	2.10844641e+06
3.41000000e+02	2.12706579e+06
3.42000000e+02	2.14591153e+06
3.43000000e+02	2.16498621e+06
3.44000000e+02	2.18429240e+06
3.45000000e+02	2.20383268e+06
3.46000000e+02	2.22360964e+06
3.47000000e+02	2.24362585e+06
3.48000000e+02	2.26388392e+06
3.49000000e+02	2.28438642e+06
3.50000000e+02	2.30513594e+06
3.51000000e+02	2.32613508e+06
3.52000000e+02	2.34738641e+06
3.53000000e+02	2.36889251e+06
3.54000000e+02	2.39065594e+06
3.55000000e+02	2.41267928e+06
3.56000000e+02	2.43496506e+06
3.57000000e+02	2.45751584e+06
3.58000000e+02	2.48033413e+06
3.59000000e+02	2.50342245e+06
3.60000000e+02	2.52678329e+06
3.61000000e+02	2.55041912e+06
3.62000000e+02	2.57433239e+06
3.63000000e+02	2.59852555e+06
3.64000000e+02	2.62300098e+06
3.65000000e+02	2.64776106e+06
3.66000000e+02	2.67280815e+06
3.67000000e+02	2.69814454e+06
3.68000000e+02	2.72377253e+06
3.69000000e+02	2.74969434e+06
3.70000000e+02	2.77591218e+06
3.71000000e+02	2.80242820e+06
3.72000000e+02	2.82924451e+06
3.73000000e+02	2.85636318e+06
3.74000000e+02	2.88378621e+06
3.75000000e+02	2.91151556e+06
3.76000000e+02	2.93955312e+06
3.77000000e+02	2.96790073e+06
3.78000000e+02	2.99656017e+06
3.79000000e+02	3.02553314e+06
3.80000000e+02	3.05482128e+06
3.81000000e+02	3.08442616e+06
3.82000000e+02	3.11434924e+06
3.83000000e+02	3.14459195e+06
3.84000000e+02	3.17515560e+06
3.85000000e+02	3.20604144e+06
3.86000000e+02	3.23725059e+06
3.87000000e+02	3.26878412e+06
3.88000000e+02	3.30064298e+06
3.89000000e+02	3.33282802e+06
3.90000000e+02	3.36533999e+06
3.91000000e+02	3.39817952e+06
3.92000000e+02	3.43134714e+06
3.93000000e+02	3.46484326e+06
3.94000000e+02	3.49866819e+06
3.95000000e+02	3.53282207e+06
3.96000000e+02	3.56730497e+06
3.97000000e+02	3.60211679e+06
3.98000000e+02	3.63725732e+06
3.99000000e+02	3.67272620e+06
4.00000000e+02	3.70852293e+06
4.01000000e+02	3.74464687e+06
4.02000000e+02	3.78109725e+06
4.03000000e+02	3.81787313e+06
4.04000000e+02	3.85497341e+06
4.05000000e+02	3.89239686e+06
4.06000000e+02	3.93014208e+06
4.07000000e+02	3.96820750e+06
4.08000000e+02	4.00659140e+06
4.09000000e+02	4.04529188e+06
4.10000000e+02	4.08430688e+06
4.11000000e+02	4.12363417e+06
4.12000000e+02	4.16327135e+06
4.13000000e+02	4.20321583e+06
4.14000000e+02	4.24346486e+06
4.15000000e+02	4.28401549e+06
4.16000000e+02	4.32486462e+06
4.17000000e+02	4.36600894e+06
4.18000000e+02	4.40744498e+06
4.19000000e+02	4.44916907e+06
4.20000000e+02	4.49117737e+06
4.21000000e+02	4.53346584e+06
4.22000000e+02	4.57603027e+06
4.23000000e+02	4.61886626e+06
4.24000000e+02	4.66196923e+06
4.25000000e+02	4.70533441e+06
4.26000000e+02	4.74895684e+06
4.27000000e+02	4.79283138e+06
4.28000000e+02	4.83695273e+06
4.29000000e+02	4.88131536e+06
4.30000000e+02	4.92591362e+06
4.31000000e+02	4.97074163e+06
4.32000000e+02	5.01579335e+06
4.33000000e+02	5.06106257e+06
4.34000000e+02	5.10654289e+06
4.35000000e+02	5.15222775e+06
4.36000000e+02	5.19811041e+06
4.37000000e+02	5.24418396e+06
4.38000000e+02	5.29044131e+06
4.39000000e+02	5.33687521e+06
4.40000000e+02	5.38347826e+06
4.41000000e+02	5.43024285e+06
4.42000000e+02	5.47716123e+06
4.43000000e+02	5.52422550e+06
4.44000000e+02	5.57142756e+06
4.45000000e+02	5.61875916e+06
4.46000000e+02	5.66621188e+06
4.47000000e+02	5.71377714e+06
4.48000000e+02	5.76144618e+06
4.49000000e+02	5.80921007e+06
4.50000000e+02	5.85705969e+06
4.51000000e+02	5.90498578e+06
4.52000000e+02	5.95297885e+06
4.53000000e+02	6.00102925e+06
4.54000000e+02	6.04912713e+06
4.55000000e+02	6.09726242e+06
4.56000000e+02	6.14542487e+06
4.57000000e+02	6.19360397e+06
4.58000000e+02	6.24178902e+06
4.59000000e+02	6.28996905e+06
4.60000000e+02	6.33813284e+06
4.61000000e+02	6.38626891e+06
4.62000000e+02	6.43436548e+06
4.63000000e+02	6.48241048e+06
4.64000000e+02	6.53039152e+06
4.65000000e+02	6.57829587e+06
4.66000000e+02	6.62611044e+06
4.67000000e+02	6.67382174e+06
4.68000000e+02	6.72141590e+06
4.69000000e+02	6.76887861e+06
4.70000000e+02	6.81619510e+06
4.71000000e+02	6.86335011e+06
4.72000000e+02	6.91032787e+06
4.73000000e+02	6.95711208e+06
4.74000000e+02	7.00368584e+06
4.75000000e+02	7.05003167e+06
4.76000000e+02	7.09613143e+06
4.77000000e+02	7.14196631e+06
4.78000000e+02	7.18751681e+06
4.79000000e+02	7.23276267e+06
4.80000000e+02	7.27768286e+06
4.81000000e+02	7.32225554e+06
4.82000000e+02	7.36645804e+06
4.83000000e+02	7.41026679e+06
4.84000000e+02	7.45365733e+06
4.85000000e+02	7.49660426e+06
4.86000000e+02	7.53908119e+06
4.87000000e+02	7.58106075e+06
4.88000000e+02	7.62251454e+06
4.89000000e+02	7.66341312e+06
4.90000000e+02	7.70372598e+06
4.91000000e+02	7.74342153e+06
4.92000000e+02	7.78246707e+06
4.93000000e+02	7.82082884e+06
4.94000000e+02	7.85847192e+06
4.95000000e+02	7.89536032e+06
4.96000000e+02	7.93145696e+06
4.97000000e+02	7.96672367e+06
4.98000000e+02	8.00112122e+06
4.99000000e+02	8.03460934e+06
5.00000000e+02	8.06714680e+06
5.01000000e+02	8.09869140e+06
5.02000000e+02	8.12920006e+06
5.03000000e+02	8.15862886e+06
5.04000000e+02	8.18693312e+06
5.05000000e+02	8.21406751e+06
5.06000000e+02	8.23998610e+06
5.07000000e+02	8.26464250e+06
5.08000000e+02	8.28798994e+06
5.09000000e+02	8.30998142e+06
5.10000000e+02	8.33056985e+06
5.11000000e+02	8.34970818e+06
5.12000000e+02	8.36734955e+06
5.13000000e+02	8.38344748e+06
5.14000000e+02	8.39795603e+06
5.15000000e+02	8.41083000e+06
5.16000000e+02	8.42202510e+06
5.17000000e+02	8.43149817e+06
5.18000000e+02	8.43920737e+06
5.19000000e+02	8.44511244e+06
5.20000000e+02	8.44917482e+06
5.21000000e+02	8.45135798e+06
5.22000000e+02	8.45162756e+06
5.23000000e+02	8.44995161e+06
5.24000000e+02	8.44630083e+06
5.25000000e+02	8.44064874e+06
5.26000000e+02	8.43297192e+06
5.27000000e+02	8.42325018e+06
5.28000000e+02	8.41146677e+06
5.29000000e+02	8.39760853e+06
5.30000000e+02	8.38166606e+06
5.31000000e+02	8.36363384e+06
5.32000000e+02	8.34351041e+06
5.33000000e+02	8.32129841e+06
5.34000000e+02	8.29700468e+06
5.35000000e+02	8.27064034e+06
5.36000000e+02	8.24222081e+06
5.37000000e+02	8.21176579e+06
5.38000000e+02	8.17929931e+06
5.39000000e+02	8.14484962e+06
5.40000000e+02	8.10844916e+06
5.41000000e+02	8.07013443e+06
5.42000000e+02	8.02994594e+06
5.43000000e+02	7.98792796e+06
5.44000000e+02	7.94412845e+06
5.45000000e+02	7.89859880e+06
5.46000000e+02	7.85139367e+06
5.47000000e+02	7.80257071e+06
5.48000000e+02	7.75219034e+06
5.49000000e+02	7.70031551e+06
5.50000000e+02	7.64701136e+06
5.51000000e+02	7.59234502e+06
5.52000000e+02	7.53638525e+06
5.53000000e+02	7.47920218e+06
5.54000000e+02	7.42086702e+06
5.55000000e+02	7.36145175e+06
5.56000000e+02	7.30102883e+06
5.57000000e+02	7.23967092e+06
5.58000000e+02	7.17745060e+06
5.59000000e+02	7.11444009e+06
5.60000000e+02	7.05071101e+06
5.61000000e+02	6.98633411e+06
5.62000000e+02	6.92137908e+06
5.63000000e+02	6.85591428e+06
5.64000000e+02	6.79000660e+06
5.65000000e+02	6.72372121e+06
5.66000000e+02	6.65712147e+06
5.67000000e+02	6.59026874e+06
5.68000000e+02	6.52322224e+06
5.69000000e+02	6.45603899e+06
5.70000000e+02	6.38877368e+06
5.71000000e+02	6.32147859e+06
5.72000000e+02	6.25420356e+06
5.73000000e+02	6.18699591e+06
5.74000000e+02	6.11990045e+06
5.75000000e+02	6.05295944e+06
5.76000000e+02	5.98621258e+06
5.77000000e+02	5.91969705e+06
5.78000000e+02	5.85344750e+06
5.79000000e+02	5.78749611e+06
5.80000000e+02	5.72187262e+06
5.81000000e+02	5.65660436e+06
5.82000000e+02	5.59171635e+06
5.83000000e+02	5.52723134e+06
5.84000000e+02	5.46316985e+06
5.85000000e+02	5.39955032e+06
5.86000000e+02	5.33638908e+06
5.87000000e+02	5.27370052e+06
5.88000000e+02	5.21149714e+06
5.89000000e+02	5.14978960e+06
5.90000000e+02	5.08858687e+06
5.91000000e+02	5.02789626e+06
5.92000000e+02	4.96772352e+06
5.93000000e+02	4.90807292e+06
5.94000000e+02	4.84894736e+06
5.95000000e+02	4.79034840e+06
5.96000000e+02	4.73227639e+06
5.97000000e+02	4.67473051e+06
5.98000000e+02	4.61770886e+06
5.99000000e+02	4.56120855e+06
6.00000000e+02	4.50522573e+06
6.01000000e+02	4.44975571e+06
6.02000000e+02	4.39479298e+06
6.03000000e+02	4.34033130e+06
6.04000000e+02	4.28636375e+06
6.05000000e+02	4.23288277e+06
6.06000000e+02	4.17988024e+06
6.07000000e+02	4.12734753e+06
6.08000000e+02	4.07527551e+06
6.09000000e+02	4.02365467e+06
6.10000000e+02	3.97247511e+06
6.11000000e+02	3.92172659e+06
6.12000000e+02	3.87139861e+06
6.13000000e+02	3.82148038e+06
6.14000000e+02	3.77196091e+06
6.15000000e+02	3.72282901e+06
6.16000000e+02	3.67407334e+06
6.17000000e+02	3.62568244e+06
6.18000000e+02	3.57764473e+06
6.19000000e+02	3.52994857e+06
6.20000000e+02	3.48258229e+06
6.21000000e+02	3.43553415e+06
6.22000000e+02	3.38879246e+06
6.23000000e+02	3.34234550e+06
6.24000000e+02	3.29618161e+06
6.25000000e+02	3.25028917e+06
6.26000000e+02	3.20465664e+06
6.27000000e+02	3.15927255e+06
6.28000000e+02	3.11412551e+06
6.29000000e+02	3.06920427e+06
6.30000000e+02	3.02449769e+06
6.31000000e+02	2.97999479e+06
6.32000000e+02	2.93568470e+06
6.33000000e+02	2.89155674e+06
6.34000000e+02	2.84760037e+06
6.35000000e+02	2.80380524e+06
6.36000000e+02	2.76016115e+06
6.37000000e+02	2.71665817e+06
6.38000000e+02	2.67328647e+06
6.39000000e+02	2.63003649e+06
6.40000000e+02	2.58689887e+06
6.41000000e+02	2.54386446e+06
6.42000000e+02	2.50092434e+06
6.43000000e+02	2.45806979e+06
6.44000000e+02	2.41529238e+06
6.45000000e+02	2.37258390e+06
6.46000000e+02	2.32993644e+06
6.47000000e+02	2.28734225e+06
6.48000000e+02	2.24479386e+06
6.49000000e+02	2.20228397e+06
6.50000000e+02	2.15980567e+06
6.51000000e+02	2.11735232e+06
6.52000000e+02	2.07491754e+06
6.53000000e+02	2.03249512e+06
6.54000000e+02	1.99007913e+06
6.55000000e+02	1.94766393e+06
6.56000000e+02	1.90524421e+06
6.57000000e+02	1.86281494e+06
6.58000000e+02	1.82037145e+06
6.59000000e+02	1.77790922e+06
