# Profil de ElecX au temps 1.100000000000014e-11 
# simu : /Volumes/MERCURE/JOBS/Zeq2_tanh_50mic_7p5e19_B0_20ps/GNU/ElecX@y-c.set
# col 0 : abscisse (um)
# col 1 : ElecX (V/m)
0.00000000e+00	0.00000000e+00
1.00000000e+00	2.30334238e+03
2.00000000e+00	1.69006177e+03
3.00000000e+00	2.32206929e+03
4.00000000e+00	3.98752682e+03
5.00000000e+00	4.90932627e+03
6.00000000e+00	5.88232997e+03
7.00000000e+00	6.86770738e+03
8.00000000e+00	7.85732415e+03
9.00000000e+00	8.85022750e+03
1.00000000e+01	9.84737695e+03
1.10000000e+01	1.08487384e+04
1.20000000e+01	1.18549732e+04
1.30000000e+01	1.28661254e+04
1.40000000e+01	1.38830019e+04
1.50000000e+01	1.49061343e+04
1.60000000e+01	1.59354234e+04
1.70000000e+01	1.69717304e+04
1.80000000e+01	1.80156645e+04
1.90000000e+01	1.90668062e+04
2.00000000e+01	2.01266163e+04
2.10000000e+01	2.11949930e+04
2.20000000e+01	2.22721532e+04
2.30000000e+01	2.33589751e+04
2.40000000e+01	2.44556821e+04
2.50000000e+01	2.55627693e+04
2.60000000e+01	2.66803180e+04
2.70000000e+01	2.78092282e+04
2.80000000e+01	2.89496648e+04
2.90000000e+01	3.01021173e+04
3.00000000e+01	3.12668440e+04
3.10000000e+01	3.24444015e+04
3.20000000e+01	3.36352321e+04
3.30000000e+01	3.48396534e+04
3.40000000e+01	3.60581787e+04
3.50000000e+01	3.72909102e+04
3.60000000e+01	3.85386815e+04
3.70000000e+01	3.98016239e+04
3.80000000e+01	4.10802227e+04
3.90000000e+01	4.23748778e+04
4.00000000e+01	4.36858204e+04
4.10000000e+01	4.50137351e+04
4.20000000e+01	4.63588261e+04
4.30000000e+01	4.77214938e+04
4.40000000e+01	4.91022281e+04
4.50000000e+01	5.05011657e+04
4.60000000e+01	5.19190079e+04
4.70000000e+01	5.33559498e+04
4.80000000e+01	5.48123873e+04
4.90000000e+01	5.62887372e+04
5.00000000e+01	5.77853079e+04
5.10000000e+01	5.93024801e+04
5.20000000e+01	6.08407062e+04
5.30000000e+01	6.24002447e+04
5.40000000e+01	6.39815075e+04
5.50000000e+01	6.55848604e+04
5.60000000e+01	6.72105847e+04
5.70000000e+01	6.88590892e+04
5.80000000e+01	7.05307378e+04
5.90000000e+01	7.22258413e+04
6.00000000e+01	7.39447458e+04
6.10000000e+01	7.56878051e+04
6.20000000e+01	7.74553134e+04
6.30000000e+01	7.92475983e+04
6.40000000e+01	8.10650624e+04
6.50000000e+01	8.29079601e+04
6.60000000e+01	8.47766250e+04
6.70000000e+01	8.66713723e+04
6.80000000e+01	8.85925384e+04
6.90000000e+01	9.05403459e+04
7.00000000e+01	9.25152031e+04
7.10000000e+01	9.45173562e+04
7.20000000e+01	9.65471044e+04
7.30000000e+01	9.86047393e+04
7.40000000e+01	1.00690547e+05
7.50000000e+01	1.02804826e+05
7.60000000e+01	1.04947787e+05
7.70000000e+01	1.07119726e+05
7.80000000e+01	1.09320890e+05
7.90000000e+01	1.11551620e+05
8.00000000e+01	1.13812161e+05
8.10000000e+01	1.16102769e+05
8.20000000e+01	1.18423702e+05
8.30000000e+01	1.20775177e+05
8.40000000e+01	1.23157460e+05
8.50000000e+01	1.25570787e+05
8.60000000e+01	1.28015377e+05
8.70000000e+01	1.30491460e+05
8.80000000e+01	1.32999255e+05
8.90000000e+01	1.35538981e+05
9.00000000e+01	1.38110851e+05
9.10000000e+01	1.40715058e+05
9.20000000e+01	1.43351822e+05
9.30000000e+01	1.46021335e+05
9.40000000e+01	1.48723786e+05
9.50000000e+01	1.51459364e+05
9.60000000e+01	1.54228250e+05
9.70000000e+01	1.57030621e+05
9.80000000e+01	1.59866677e+05
9.90000000e+01	1.62736258e+05
1.00000000e+02	1.65639742e+05
1.01000000e+02	1.68577589e+05
1.02000000e+02	1.71549809e+05
1.03000000e+02	1.74556521e+05
1.04000000e+02	1.77597848e+05
1.05000000e+02	1.80673916e+05
1.06000000e+02	1.83784851e+05
1.07000000e+02	1.86930777e+05
1.08000000e+02	1.90111813e+05
1.09000000e+02	1.93328076e+05
1.10000000e+02	1.96579676e+05
1.11000000e+02	1.99866720e+05
1.12000000e+02	2.03189311e+05
1.13000000e+02	2.06547544e+05
1.14000000e+02	2.09941513e+05
1.15000000e+02	2.13371304e+05
1.16000000e+02	2.16837001e+05
1.17000000e+02	2.20338680e+05
1.18000000e+02	2.23876416e+05
1.19000000e+02	2.27450277e+05
1.20000000e+02	2.31060326e+05
1.21000000e+02	2.34706623e+05
1.22000000e+02	2.38389222e+05
1.23000000e+02	2.42108174e+05
1.24000000e+02	2.45863526e+05
1.25000000e+02	2.49655317e+05
1.26000000e+02	2.53483587e+05
1.27000000e+02	2.57348367e+05
1.28000000e+02	2.61249687e+05
1.29000000e+02	2.65187571e+05
1.30000000e+02	2.69162042e+05
1.31000000e+02	2.73173115e+05
1.32000000e+02	2.77220803e+05
1.33000000e+02	2.81305117e+05
1.34000000e+02	2.85426062e+05
1.35000000e+02	2.89583639e+05
1.36000000e+02	2.93777849e+05
1.37000000e+02	2.98008685e+05
1.38000000e+02	3.02276140e+05
1.39000000e+02	3.06580203e+05
1.40000000e+02	3.10920859e+05
1.41000000e+02	3.15298092e+05
1.42000000e+02	3.19711880e+05
1.43000000e+02	3.24162200e+05
1.44000000e+02	3.28649027e+05
1.45000000e+02	3.33172334e+05
1.46000000e+02	3.37732087e+05
1.47000000e+02	3.42328256e+05
1.48000000e+02	3.46960803e+05
1.49000000e+02	3.51629693e+05
1.50000000e+02	3.56334884e+05
1.51000000e+02	3.61076337e+05
1.52000000e+02	3.65854008e+05
1.53000000e+02	3.70667851e+05
1.54000000e+02	3.75517822e+05
1.55000000e+02	3.80403872e+05
1.56000000e+02	3.85325953e+05
1.57000000e+02	3.90284015e+05
1.58000000e+02	3.95278007e+05
1.59000000e+02	4.00307878e+05
1.60000000e+02	4.05373574e+05
1.61000000e+02	4.10475044e+05
1.62000000e+02	4.15612234e+05
1.63000000e+02	4.20785091e+05
1.64000000e+02	4.25993560e+05
1.65000000e+02	4.31237590e+05
1.66000000e+02	4.36517125e+05
1.67000000e+02	4.41832114e+05
1.68000000e+02	4.47182504e+05
1.69000000e+02	4.52568243e+05
1.70000000e+02	4.57989280e+05
1.71000000e+02	4.63445564e+05
1.72000000e+02	4.68937048e+05
1.73000000e+02	4.74463683e+05
1.74000000e+02	4.80025422e+05
1.75000000e+02	4.85622222e+05
1.76000000e+02	4.91254040e+05
1.77000000e+02	4.96920833e+05
1.78000000e+02	5.02622564e+05
1.79000000e+02	5.08359196e+05
1.80000000e+02	5.14130693e+05
1.81000000e+02	5.19937026e+05
1.82000000e+02	5.25778163e+05
1.83000000e+02	5.31654081e+05
1.84000000e+02	5.37564754e+05
1.85000000e+02	5.43510164e+05
1.86000000e+02	5.49490294e+05
1.87000000e+02	5.55505131e+05
1.88000000e+02	5.61554667e+05
1.89000000e+02	5.67638895e+05
1.90000000e+02	5.73757815e+05
1.91000000e+02	5.79911431e+05
1.92000000e+02	5.86099749e+05
1.93000000e+02	5.92322783e+05
1.94000000e+02	5.98580549e+05
1.95000000e+02	6.04873070e+05
1.96000000e+02	6.11200373e+05
1.97000000e+02	6.17562490e+05
1.98000000e+02	6.23959460e+05
1.99000000e+02	6.30391327e+05
2.00000000e+02	6.36858140e+05
2.01000000e+02	6.43359957e+05
2.02000000e+02	6.49896838e+05
2.03000000e+02	6.56468854e+05
2.04000000e+02	6.63076079e+05
2.05000000e+02	6.69718596e+05
2.06000000e+02	6.76396494e+05
2.07000000e+02	6.83109871e+05
2.08000000e+02	6.89858831e+05
2.09000000e+02	6.96643485e+05
2.10000000e+02	7.03463954e+05
2.11000000e+02	7.10320366e+05
2.12000000e+02	7.17212857e+05
2.13000000e+02	7.24141572e+05
2.14000000e+02	7.31106666e+05
2.15000000e+02	7.38108300e+05
2.16000000e+02	7.45146648e+05
2.17000000e+02	7.52221889e+05
2.18000000e+02	7.59334217e+05
2.19000000e+02	7.66483831e+05
2.20000000e+02	7.73670943e+05
2.21000000e+02	7.80895775e+05
2.22000000e+02	7.88158559e+05
2.23000000e+02	7.95459539e+05
2.24000000e+02	8.02798968e+05
2.25000000e+02	8.10177114e+05
2.26000000e+02	8.17594254e+05
2.27000000e+02	8.25050677e+05
2.28000000e+02	8.32546686e+05
2.29000000e+02	8.40082594e+05
2.30000000e+02	8.47658730e+05
2.31000000e+02	8.55275435e+05
2.32000000e+02	8.62933061e+05
2.33000000e+02	8.70631978e+05
2.34000000e+02	8.78372566e+05
2.35000000e+02	8.86155223e+05
2.36000000e+02	8.93980359e+05
2.37000000e+02	9.01848400e+05
2.38000000e+02	9.09759790e+05
2.39000000e+02	9.17714984e+05
2.40000000e+02	9.25714457e+05
2.41000000e+02	9.33758698e+05
2.42000000e+02	9.41848216e+05
2.43000000e+02	9.49983534e+05
2.44000000e+02	9.58165195e+05
2.45000000e+02	9.66393760e+05
2.46000000e+02	9.74669807e+05
2.47000000e+02	9.82993934e+05
2.48000000e+02	9.91366759e+05
2.49000000e+02	9.99788920e+05
2.50000000e+02	1.00826107e+06
2.51000000e+02	1.01678390e+06
2.52000000e+02	1.02535810e+06
2.53000000e+02	1.03398439e+06
2.54000000e+02	1.04266352e+06
2.55000000e+02	1.05139625e+06
2.56000000e+02	1.06018338e+06
2.57000000e+02	1.06902572e+06
2.58000000e+02	1.07792411e+06
2.59000000e+02	1.08687941e+06
2.60000000e+02	1.09589252e+06
2.61000000e+02	1.10496434e+06
2.62000000e+02	1.11409583e+06
2.63000000e+02	1.12328795e+06
2.64000000e+02	1.13254170e+06
2.65000000e+02	1.14185811e+06
2.66000000e+02	1.15123824e+06
2.67000000e+02	1.16068316e+06
2.68000000e+02	1.17019401e+06
2.69000000e+02	1.17977193e+06
2.70000000e+02	1.18941809e+06
2.71000000e+02	1.19913373e+06
2.72000000e+02	1.20892007e+06
2.73000000e+02	1.21877841e+06
2.74000000e+02	1.22871006e+06
2.75000000e+02	1.23871637e+06
2.76000000e+02	1.24879874e+06
2.77000000e+02	1.25895859e+06
2.78000000e+02	1.26919738e+06
2.79000000e+02	1.27951662e+06
2.80000000e+02	1.28991785e+06
2.81000000e+02	1.30040266e+06
2.82000000e+02	1.31097267e+06
2.83000000e+02	1.32162954e+06
2.84000000e+02	1.33237498e+06
2.85000000e+02	1.34321076e+06
2.86000000e+02	1.35413865e+06
2.87000000e+02	1.36516051e+06
2.88000000e+02	1.37627823e+06
2.89000000e+02	1.38749373e+06
2.90000000e+02	1.39880900e+06
2.91000000e+02	1.41022607e+06
2.92000000e+02	1.42174701e+06
2.93000000e+02	1.43337395e+06
2.94000000e+02	1.44510908e+06
2.95000000e+02	1.45695461e+06
2.96000000e+02	1.46891283e+06
2.97000000e+02	1.48098607e+06
2.98000000e+02	1.49317672e+06
2.99000000e+02	1.50548721e+06
3.00000000e+02	1.51792003e+06
3.01000000e+02	1.53047774e+06
3.02000000e+02	1.54316293e+06
3.03000000e+02	1.55597826e+06
3.04000000e+02	1.56892645e+06
3.05000000e+02	1.58201026e+06
3.06000000e+02	1.59523252e+06
3.07000000e+02	1.60859611e+06
3.08000000e+02	1.62210399e+06
3.09000000e+02	1.63575914e+06
3.10000000e+02	1.64956462e+06
3.11000000e+02	1.66352355e+06
3.12000000e+02	1.67763910e+06
3.13000000e+02	1.69191450e+06
3.14000000e+02	1.70635306e+06
3.15000000e+02	1.72095810e+06
3.16000000e+02	1.73573306e+06
3.17000000e+02	1.75068138e+06
3.18000000e+02	1.76580659e+06
3.19000000e+02	1.78111228e+06
3.20000000e+02	1.79660209e+06
3.21000000e+02	1.81227972e+06
3.22000000e+02	1.82814891e+06
3.23000000e+02	1.84421348e+06
3.24000000e+02	1.86047730e+06
3.25000000e+02	1.87694429e+06
3.26000000e+02	1.89361842e+06
3.27000000e+02	1.91050373e+06
3.28000000e+02	1.92760429e+06
3.29000000e+02	1.94492425e+06
3.30000000e+02	1.96246779e+06
3.31000000e+02	1.98023915e+06
3.32000000e+02	1.99824262e+06
3.33000000e+02	2.01648252e+06
3.34000000e+02	2.03496324e+06
3.35000000e+02	2.05368920e+06
3.36000000e+02	2.07266488e+06
3.37000000e+02	2.09189478e+06
3.38000000e+02	2.11138347e+06
3.39000000e+02	2.13113552e+06
3.40000000e+02	2.15115558e+06
3.41000000e+02	2.17144831e+06
3.42000000e+02	2.19201841e+06
3.43000000e+02	2.21287061e+06
3.44000000e+02	2.23400967e+06
3.45000000e+02	2.25544039e+06
3.46000000e+02	2.27716758e+06
3.47000000e+02	2.29919607e+06
3.48000000e+02	2.32153074e+06
3.49000000e+02	2.34417646e+06
3.50000000e+02	2.36713813e+06
3.51000000e+02	2.39042066e+06
3.52000000e+02	2.41402897e+06
3.53000000e+02	2.43796798e+06
3.54000000e+02	2.46224265e+06
3.55000000e+02	2.48685789e+06
3.56000000e+02	2.51181867e+06
3.57000000e+02	2.53712990e+06
3.58000000e+02	2.56279652e+06
3.59000000e+02	2.58882345e+06
3.60000000e+02	2.61521559e+06
3.61000000e+02	2.64197784e+06
3.62000000e+02	2.66911506e+06
3.63000000e+02	2.69663211e+06
3.64000000e+02	2.72453379e+06
3.65000000e+02	2.75282491e+06
3.66000000e+02	2.78151021e+06
3.67000000e+02	2.81059440e+06
3.68000000e+02	2.84008217e+06
3.69000000e+02	2.86997812e+06
3.70000000e+02	2.90028684e+06
3.71000000e+02	2.93101282e+06
3.72000000e+02	2.96216054e+06
3.73000000e+02	2.99373437e+06
3.74000000e+02	3.02573863e+06
3.75000000e+02	3.05817755e+06
3.76000000e+02	3.09105530e+06
3.77000000e+02	3.12437594e+06
3.78000000e+02	3.15814346e+06
3.79000000e+02	3.19236172e+06
3.80000000e+02	3.22703451e+06
3.81000000e+02	3.26216549e+06
3.82000000e+02	3.29775822e+06
3.83000000e+02	3.33381610e+06
3.84000000e+02	3.37034246e+06
3.85000000e+02	3.40734044e+06
3.86000000e+02	3.44481307e+06
3.87000000e+02	3.48276321e+06
3.88000000e+02	3.52119359e+06
3.89000000e+02	3.56010675e+06
3.90000000e+02	3.59950508e+06
3.91000000e+02	3.63939077e+06
3.92000000e+02	3.67976585e+06
3.93000000e+02	3.72063214e+06
3.94000000e+02	3.76199126e+06
3.95000000e+02	3.80384462e+06
3.96000000e+02	3.84619343e+06
3.97000000e+02	3.88903866e+06
3.98000000e+02	3.93238105e+06
3.99000000e+02	3.97622109e+06
4.00000000e+02	4.02055905e+06
4.01000000e+02	4.06539490e+06
4.02000000e+02	4.11072839e+06
4.03000000e+02	4.15655897e+06
4.04000000e+02	4.20288582e+06
4.05000000e+02	4.24970782e+06
4.06000000e+02	4.29702356e+06
4.07000000e+02	4.34483133e+06
4.08000000e+02	4.39312910e+06
4.09000000e+02	4.44191454e+06
4.10000000e+02	4.49118496e+06
4.11000000e+02	4.54093736e+06
4.12000000e+02	4.59116841e+06
4.13000000e+02	4.64187440e+06
4.14000000e+02	4.69305130e+06
4.15000000e+02	4.74469471e+06
4.16000000e+02	4.79679985e+06
4.17000000e+02	4.84936161e+06
4.18000000e+02	4.90237446e+06
4.19000000e+02	4.95583253e+06
4.20000000e+02	5.00972955e+06
4.21000000e+02	5.06405886e+06
4.22000000e+02	5.11881343e+06
4.23000000e+02	5.17398583e+06
4.24000000e+02	5.22956822e+06
4.25000000e+02	5.28555241e+06
4.26000000e+02	5.34192977e+06
4.27000000e+02	5.39869131e+06
4.28000000e+02	5.45582761e+06
4.29000000e+02	5.51332888e+06
4.30000000e+02	5.57118494e+06
4.31000000e+02	5.62938520e+06
4.32000000e+02	5.68791869e+06
4.33000000e+02	5.74677407e+06
4.34000000e+02	5.80593957e+06
4.35000000e+02	5.86540309e+06
4.36000000e+02	5.92515211e+06
4.37000000e+02	5.98517378e+06
4.38000000e+02	6.04545483e+06
4.39000000e+02	6.10598167e+06
4.40000000e+02	6.16674031e+06
4.41000000e+02	6.22771643e+06
4.42000000e+02	6.28889535e+06
4.43000000e+02	6.35026202e+06
4.44000000e+02	6.41180106e+06
4.45000000e+02	6.47349675e+06
4.46000000e+02	6.53533301e+06
4.47000000e+02	6.59729343e+06
4.48000000e+02	6.65936126e+06
4.49000000e+02	6.72151939e+06
4.50000000e+02	6.78375039e+06
4.51000000e+02	6.84603646e+06
4.52000000e+02	6.90835947e+06
4.53000000e+02	6.97070092e+06
4.54000000e+02	7.03304193e+06
4.55000000e+02	7.09536326e+06
4.56000000e+02	7.15764528e+06
4.57000000e+02	7.21986795e+06
4.58000000e+02	7.28201079e+06
4.59000000e+02	7.34405292e+06
4.60000000e+02	7.40597296e+06
4.61000000e+02	7.46774905e+06
4.62000000e+02	7.52935882e+06
4.63000000e+02	7.59077934e+06
4.64000000e+02	7.65198710e+06
4.65000000e+02	7.71295797e+06
4.66000000e+02	7.77366718e+06
4.67000000e+02	7.83408922e+06
4.68000000e+02	7.89419787e+06
4.69000000e+02	7.95396608e+06
4.70000000e+02	8.01336598e+06
4.71000000e+02	8.07236877e+06
4.72000000e+02	8.13094474e+06
4.73000000e+02	8.18906312e+06
4.74000000e+02	8.24669209e+06
4.75000000e+02	8.30379870e+06
4.76000000e+02	8.36034882e+06
4.77000000e+02	8.41630705e+06
4.78000000e+02	8.47163670e+06
4.79000000e+02	8.52629970e+06
4.80000000e+02	8.58025659e+06
4.81000000e+02	8.63346640e+06
4.82000000e+02	8.68588667e+06
4.83000000e+02	8.73747337e+06
4.84000000e+02	8.78818087e+06
4.85000000e+02	8.83796190e+06
4.86000000e+02	8.88676756e+06
4.87000000e+02	8.93454726e+06
4.88000000e+02	8.98124875e+06
4.89000000e+02	9.02681812e+06
4.90000000e+02	9.07119983e+06
4.91000000e+02	9.11433671e+06
4.92000000e+02	9.15617005e+06
4.93000000e+02	9.19663964e+06
4.94000000e+02	9.23568388e+06
4.95000000e+02	9.27323983e+06
4.96000000e+02	9.30924341e+06
4.97000000e+02	9.34362944e+06
4.98000000e+02	9.37633189e+06
4.99000000e+02	9.40728402e+06
5.00000000e+02	9.43641859e+06
5.01000000e+02	9.46366809e+06
5.02000000e+02	9.48896498e+06
5.03000000e+02	9.51224196e+06
5.04000000e+02	9.53343226e+06
5.05000000e+02	9.55246997e+06
5.06000000e+02	9.56929033e+06
5.07000000e+02	9.58383010e+06
5.08000000e+02	9.59602791e+06
5.09000000e+02	9.60582462e+06
5.10000000e+02	9.61316375e+06
5.11000000e+02	9.61799179e+06
5.12000000e+02	9.62025866e+06
5.13000000e+02	9.61991805e+06
5.14000000e+02	9.61692785e+06
5.15000000e+02	9.61125049e+06
5.16000000e+02	9.60285334e+06
5.17000000e+02	9.59170902e+06
5.18000000e+02	9.57779576e+06
5.19000000e+02	9.56109767e+06
5.20000000e+02	9.54160504e+06
5.21000000e+02	9.51931457e+06
5.22000000e+02	9.49422952e+06
5.23000000e+02	9.46635993e+06
5.24000000e+02	9.43572269e+06
5.25000000e+02	9.40234161e+06
5.26000000e+02	9.36624743e+06
5.27000000e+02	9.32747780e+06
5.28000000e+02	9.28607714e+06
5.29000000e+02	9.24209656e+06
5.30000000e+02	9.19559360e+06
5.31000000e+02	9.14663206e+06
5.32000000e+02	9.09528164e+06
5.33000000e+02	9.04161765e+06
5.34000000e+02	8.98572060e+06
5.35000000e+02	8.92767584e+06
5.36000000e+02	8.86757305e+06
5.37000000e+02	8.80550581e+06
5.38000000e+02	8.74157109e+06
5.39000000e+02	8.67586875e+06
5.40000000e+02	8.60850100e+06
5.41000000e+02	8.53957189e+06
5.42000000e+02	8.46918677e+06
5.43000000e+02	8.39745178e+06
5.44000000e+02	8.32447330e+06
5.45000000e+02	8.25035752e+06
5.46000000e+02	8.17520990e+06
5.47000000e+02	8.09913474e+06
5.48000000e+02	8.02223475e+06
5.49000000e+02	7.94461065e+06
5.50000000e+02	7.86636082e+06
5.51000000e+02	7.78758092e+06
5.52000000e+02	7.70836363e+06
5.53000000e+02	7.62879838e+06
5.54000000e+02	7.54897112e+06
5.55000000e+02	7.46896409e+06
5.56000000e+02	7.38885573e+06
5.57000000e+02	7.30872048e+06
5.58000000e+02	7.22862876e+06
5.59000000e+02	7.14864684e+06
5.60000000e+02	7.06883685e+06
5.61000000e+02	6.98925677e+06
5.62000000e+02	6.90996045e+06
5.63000000e+02	6.83099762e+06
5.64000000e+02	6.75241402e+06
5.65000000e+02	6.67425139e+06
5.66000000e+02	6.59654766e+06
5.67000000e+02	6.51933703e+06
5.68000000e+02	6.44265006e+06
5.69000000e+02	6.36651386e+06
5.70000000e+02	6.29095222e+06
5.71000000e+02	6.21598573e+06
5.72000000e+02	6.14163197e+06
5.73000000e+02	6.06790566e+06
5.74000000e+02	5.99481883e+06
5.75000000e+02	5.92238097e+06
5.76000000e+02	5.85059922e+06
5.77000000e+02	5.77947846e+06
5.78000000e+02	5.70902154e+06
5.79000000e+02	5.63922940e+06
5.80000000e+02	5.57010124e+06
5.81000000e+02	5.50163465e+06
5.82000000e+02	5.43382578e+06
5.83000000e+02	5.36666945e+06
5.84000000e+02	5.30015926e+06
5.85000000e+02	5.23428775e+06
5.86000000e+02	5.16904651e+06
5.87000000e+02	5.10442632e+06
5.88000000e+02	5.04041723e+06
5.89000000e+02	4.97700860e+06
5.90000000e+02	4.91418929e+06
5.91000000e+02	4.85194769e+06
5.92000000e+02	4.79027187e+06
5.93000000e+02	4.72914966e+06
5.94000000e+02	4.66856862e+06
5.95000000e+02	4.60851609e+06
5.96000000e+02	4.54897932e+06
5.97000000e+02	4.48994550e+06
5.98000000e+02	4.43140187e+06
5.99000000e+02	4.37333574e+06
6.00000000e+02	4.31573465e+06
6.01000000e+02	4.25858626e+06
6.02000000e+02	4.20187833e+06
6.03000000e+02	4.14559865e+06
6.04000000e+02	4.08973528e+06
6.05000000e+02	4.03427661e+06
6.06000000e+02	3.97921139e+06
6.07000000e+02	3.92452869e+06
6.08000000e+02	3.87021797e+06
6.09000000e+02	3.81626880e+06
6.10000000e+02	3.76267095e+06
6.11000000e+02	3.70941490e+06
6.12000000e+02	3.65649164e+06
6.13000000e+02	3.60389207e+06
6.14000000e+02	3.55160734e+06
6.15000000e+02	3.49962935e+06
6.16000000e+02	3.44795050e+06
6.17000000e+02	3.39656360e+06
6.18000000e+02	3.34546150e+06
6.19000000e+02	3.29463748e+06
6.20000000e+02	3.24408606e+06
6.21000000e+02	3.19380072e+06
6.22000000e+02	3.14377642e+06
6.23000000e+02	3.09400958e+06
6.24000000e+02	3.04449233e+06
6.25000000e+02	2.99522295e+06
6.26000000e+02	2.94619868e+06
6.27000000e+02	2.89741379e+06
6.28000000e+02	2.84886616e+06
6.29000000e+02	2.80055411e+06
6.30000000e+02	2.75247664e+06
6.31000000e+02	2.70462277e+06
6.32000000e+02	2.65701493e+06
6.33000000e+02	2.60960295e+06
6.34000000e+02	2.56247291e+06
6.35000000e+02	2.51553733e+06
6.36000000e+02	2.46882277e+06
6.37000000e+02	2.42232931e+06
6.38000000e+02	2.37610820e+06
6.39000000e+02	2.33004653e+06
6.40000000e+02	2.28429587e+06
6.41000000e+02	2.23870254e+06
6.42000000e+02	2.19341619e+06
6.43000000e+02	2.14829404e+06
6.44000000e+02	2.10347848e+06
6.45000000e+02	2.05883745e+06
6.46000000e+02	2.01450093e+06
6.47000000e+02	1.97036776e+06
6.48000000e+02	1.92651134e+06
6.49000000e+02	1.88289782e+06
6.50000000e+02	1.83953361e+06
6.51000000e+02	1.79644720e+06
6.52000000e+02	1.75359773e+06
6.53000000e+02	1.71104742e+06
6.54000000e+02	1.66871862e+06
6.55000000e+02	1.62670931e+06
6.56000000e+02	1.58492281e+06
6.57000000e+02	1.54345626e+06
6.58000000e+02	1.50224708e+06
6.59000000e+02	1.46132412e+06
