# Profil de ElecX au temps 1.400000000000019e-11 
# simu : /Volumes/MERCURE/JOBS/Zeq2_tanh_50mic_7p5e19_B0_20ps/GNU/ElecX@y-c.set
# col 0 : abscisse (um)
# col 1 : ElecX (V/m)
0.00000000e+00	0.00000000e+00
1.00000000e+00	4.81528916e+03
2.00000000e+00	5.92895522e+03
3.00000000e+00	8.62074183e+03
4.00000000e+00	1.26287898e+04
5.00000000e+00	1.56841349e+04
6.00000000e+00	1.88057345e+04
7.00000000e+00	2.19401715e+04
8.00000000e+00	2.50769465e+04
9.00000000e+00	2.82140577e+04
1.00000000e+01	3.13535956e+04
1.10000000e+01	3.44942164e+04
1.20000000e+01	3.76367043e+04
1.30000000e+01	4.07800438e+04
1.40000000e+01	4.39255141e+04
1.50000000e+01	4.70734979e+04
1.60000000e+01	5.02226346e+04
1.70000000e+01	5.33742705e+04
1.80000000e+01	5.65291586e+04
1.90000000e+01	5.96848633e+04
2.00000000e+01	6.28446239e+04
2.10000000e+01	6.60070099e+04
2.20000000e+01	6.91715138e+04
2.30000000e+01	7.23396546e+04
2.40000000e+01	7.55109608e+04
2.50000000e+01	7.86858166e+04
2.60000000e+01	8.18632671e+04
2.70000000e+01	8.50449703e+04
2.80000000e+01	8.82302643e+04
2.90000000e+01	9.14195241e+04
3.00000000e+01	9.46123666e+04
3.10000000e+01	9.78093844e+04
3.20000000e+01	1.01010814e+05
3.30000000e+01	1.04216488e+05
3.40000000e+01	1.07426892e+05
3.50000000e+01	1.10641110e+05
3.60000000e+01	1.13860729e+05
3.70000000e+01	1.17084952e+05
3.80000000e+01	1.20314206e+05
3.90000000e+01	1.23548621e+05
4.00000000e+01	1.26787710e+05
4.10000000e+01	1.30032650e+05
4.20000000e+01	1.33282897e+05
4.30000000e+01	1.36538563e+05
4.40000000e+01	1.39800211e+05
4.50000000e+01	1.43066971e+05
4.60000000e+01	1.46340192e+05
4.70000000e+01	1.49619291e+05
4.80000000e+01	1.52904421e+05
4.90000000e+01	1.56195895e+05
5.00000000e+01	1.59493563e+05
5.10000000e+01	1.62797566e+05
5.20000000e+01	1.66108398e+05
5.30000000e+01	1.69425678e+05
5.40000000e+01	1.72749788e+05
5.50000000e+01	1.76080859e+05
5.60000000e+01	1.79418669e+05
5.70000000e+01	1.82763568e+05
5.80000000e+01	1.86115726e+05
5.90000000e+01	1.89475130e+05
6.00000000e+01	1.92841880e+05
6.10000000e+01	1.96216180e+05
6.20000000e+01	1.99597873e+05
6.30000000e+01	2.02987096e+05
6.40000000e+01	2.06384312e+05
6.50000000e+01	2.09789279e+05
6.60000000e+01	2.13202143e+05
6.70000000e+01	2.16622993e+05
6.80000000e+01	2.20052107e+05
6.90000000e+01	2.23489044e+05
7.00000000e+01	2.26934535e+05
7.10000000e+01	2.30388302e+05
7.20000000e+01	2.33850521e+05
7.30000000e+01	2.37321259e+05
7.40000000e+01	2.40800597e+05
7.50000000e+01	2.44288792e+05
7.60000000e+01	2.47785281e+05
7.70000000e+01	2.51291006e+05
7.80000000e+01	2.54805580e+05
7.90000000e+01	2.58329119e+05
8.00000000e+01	2.61861780e+05
8.10000000e+01	2.65403523e+05
8.20000000e+01	2.68954369e+05
8.30000000e+01	2.72514855e+05
8.40000000e+01	2.76084556e+05
8.50000000e+01	2.79663686e+05
8.60000000e+01	2.83252394e+05
8.70000000e+01	2.86850580e+05
8.80000000e+01	2.90458461e+05
8.90000000e+01	2.94076086e+05
9.00000000e+01	2.97703559e+05
9.10000000e+01	3.01340719e+05
9.20000000e+01	3.04987857e+05
9.30000000e+01	3.08645046e+05
9.40000000e+01	3.12312264e+05
9.50000000e+01	3.15989598e+05
9.60000000e+01	3.19677115e+05
9.70000000e+01	3.23374891e+05
9.80000000e+01	3.27082944e+05
9.90000000e+01	3.30801455e+05
1.00000000e+02	3.34530268e+05
1.01000000e+02	3.38269576e+05
1.02000000e+02	3.42019545e+05
1.03000000e+02	3.45780139e+05
1.04000000e+02	3.49551303e+05
1.05000000e+02	3.53333240e+05
1.06000000e+02	3.57126059e+05
1.07000000e+02	3.60929605e+05
1.08000000e+02	3.64744143e+05
1.09000000e+02	3.68569711e+05
1.10000000e+02	3.72406125e+05
1.11000000e+02	3.76253935e+05
1.12000000e+02	3.80112489e+05
1.13000000e+02	3.83982644e+05
1.14000000e+02	3.87863825e+05
1.15000000e+02	3.91756514e+05
1.16000000e+02	3.95660397e+05
1.17000000e+02	3.99575966e+05
1.18000000e+02	4.03502795e+05
1.19000000e+02	4.07441456e+05
1.20000000e+02	4.11391517e+05
1.21000000e+02	4.15353419e+05
1.22000000e+02	4.19327040e+05
1.23000000e+02	4.23312422e+05
1.24000000e+02	4.27309833e+05
1.25000000e+02	4.31318996e+05
1.26000000e+02	4.35340279e+05
1.27000000e+02	4.39373683e+05
1.28000000e+02	4.43419074e+05
1.29000000e+02	4.47476791e+05
1.30000000e+02	4.51546760e+05
1.31000000e+02	4.55628964e+05
1.32000000e+02	4.59723665e+05
1.33000000e+02	4.63830861e+05
1.34000000e+02	4.67950542e+05
1.35000000e+02	4.72082838e+05
1.36000000e+02	4.76227875e+05
1.37000000e+02	4.80385668e+05
1.38000000e+02	4.84556289e+05
1.39000000e+02	4.88739797e+05
1.40000000e+02	4.92936427e+05
1.41000000e+02	4.97146033e+05
1.42000000e+02	5.01368795e+05
1.43000000e+02	5.05604787e+05
1.44000000e+02	5.09854123e+05
1.45000000e+02	5.14116840e+05
1.46000000e+02	5.18393064e+05
1.47000000e+02	5.22682870e+05
1.48000000e+02	5.26986360e+05
1.49000000e+02	5.31303586e+05
1.50000000e+02	5.35634690e+05
1.51000000e+02	5.39979701e+05
1.52000000e+02	5.44338825e+05
1.53000000e+02	5.48712096e+05
1.54000000e+02	5.53099590e+05
1.55000000e+02	5.57501561e+05
1.56000000e+02	5.61917819e+05
1.57000000e+02	5.66348807e+05
1.58000000e+02	5.70794401e+05
1.59000000e+02	5.75254912e+05
1.60000000e+02	5.79730261e+05
1.61000000e+02	5.84220685e+05
1.62000000e+02	5.88726291e+05
1.63000000e+02	5.93247211e+05
1.64000000e+02	5.97783587e+05
1.65000000e+02	6.02335435e+05
1.66000000e+02	6.06903077e+05
1.67000000e+02	6.11486581e+05
1.68000000e+02	6.16085949e+05
1.69000000e+02	6.20701564e+05
1.70000000e+02	6.25333448e+05
1.71000000e+02	6.29981711e+05
1.72000000e+02	6.34646628e+05
1.73000000e+02	6.39328283e+05
1.74000000e+02	6.44026852e+05
1.75000000e+02	6.48742559e+05
1.76000000e+02	6.53475461e+05
1.77000000e+02	6.58225897e+05
1.78000000e+02	6.62993882e+05
1.79000000e+02	6.67779761e+05
1.80000000e+02	6.72583590e+05
1.81000000e+02	6.77405680e+05
1.82000000e+02	6.82246144e+05
1.83000000e+02	6.87105240e+05
1.84000000e+02	6.91983181e+05
1.85000000e+02	6.96880157e+05
1.86000000e+02	7.01796416e+05
1.87000000e+02	7.06732181e+05
1.88000000e+02	7.11687679e+05
1.89000000e+02	7.16663163e+05
1.90000000e+02	7.21658871e+05
1.91000000e+02	7.26675064e+05
1.92000000e+02	7.31712002e+05
1.93000000e+02	7.36769941e+05
1.94000000e+02	7.41849172e+05
1.95000000e+02	7.46949912e+05
1.96000000e+02	7.52072398e+05
1.97000000e+02	7.57217115e+05
1.98000000e+02	7.62384307e+05
1.99000000e+02	7.67574270e+05
2.00000000e+02	7.72787315e+05
2.01000000e+02	7.78023768e+05
2.02000000e+02	7.83283957e+05
2.03000000e+02	7.88568224e+05
2.04000000e+02	7.93876921e+05
2.05000000e+02	7.99210406e+05
2.06000000e+02	8.04569049e+05
2.07000000e+02	8.09953230e+05
2.08000000e+02	8.15363216e+05
2.09000000e+02	8.20799535e+05
2.10000000e+02	8.26262616e+05
2.11000000e+02	8.31752870e+05
2.12000000e+02	8.37270711e+05
2.13000000e+02	8.42816515e+05
2.14000000e+02	8.48390798e+05
2.15000000e+02	8.53994021e+05
2.16000000e+02	8.59626649e+05
2.17000000e+02	8.65289166e+05
2.18000000e+02	8.70982064e+05
2.19000000e+02	8.76705850e+05
2.20000000e+02	8.82461045e+05
2.21000000e+02	8.88248179e+05
2.22000000e+02	8.94067798e+05
2.23000000e+02	8.99920458e+05
2.24000000e+02	9.05806733e+05
2.25000000e+02	9.11727205e+05
2.26000000e+02	9.17682473e+05
2.27000000e+02	9.23673150e+05
2.28000000e+02	9.29699863e+05
2.29000000e+02	9.35763252e+05
2.30000000e+02	9.41863973e+05
2.31000000e+02	9.48002696e+05
2.32000000e+02	9.54180108e+05
2.33000000e+02	9.60396910e+05
2.34000000e+02	9.66653820e+05
2.35000000e+02	9.72951571e+05
2.36000000e+02	9.79290916e+05
2.37000000e+02	9.85672621e+05
2.38000000e+02	9.92097474e+05
2.39000000e+02	9.98566277e+05
2.40000000e+02	1.00507985e+06
2.41000000e+02	1.01163904e+06
2.42000000e+02	1.01824469e+06
2.43000000e+02	1.02489769e+06
2.44000000e+02	1.03159893e+06
2.45000000e+02	1.03834933e+06
2.46000000e+02	1.04514980e+06
2.47000000e+02	1.05200131e+06
2.48000000e+02	1.05890482e+06
2.49000000e+02	1.06586131e+06
2.50000000e+02	1.07287181e+06
2.51000000e+02	1.07993733e+06
2.52000000e+02	1.08705891e+06
2.53000000e+02	1.09423763e+06
2.54000000e+02	1.10147458e+06
2.55000000e+02	1.10877086e+06
2.56000000e+02	1.11612760e+06
2.57000000e+02	1.12354596e+06
2.58000000e+02	1.13102710e+06
2.59000000e+02	1.13857221e+06
2.60000000e+02	1.14618252e+06
2.61000000e+02	1.15385926e+06
2.62000000e+02	1.16160369e+06
2.63000000e+02	1.16941709e+06
2.64000000e+02	1.17730077e+06
2.65000000e+02	1.18525605e+06
2.66000000e+02	1.19328427e+06
2.67000000e+02	1.20138682e+06
2.68000000e+02	1.20956508e+06
2.69000000e+02	1.21782048e+06
2.70000000e+02	1.22615444e+06
2.71000000e+02	1.23456844e+06
2.72000000e+02	1.24306396e+06
2.73000000e+02	1.25164251e+06
2.74000000e+02	1.26030561e+06
2.75000000e+02	1.26905484e+06
2.76000000e+02	1.27789176e+06
2.77000000e+02	1.28681798e+06
2.78000000e+02	1.29583512e+06
2.79000000e+02	1.30494484e+06
2.80000000e+02	1.31414880e+06
2.81000000e+02	1.32344870e+06
2.82000000e+02	1.33284626e+06
2.83000000e+02	1.34234322e+06
2.84000000e+02	1.35194136e+06
2.85000000e+02	1.36164245e+06
2.86000000e+02	1.37144832e+06
2.87000000e+02	1.38136080e+06
2.88000000e+02	1.39138175e+06
2.89000000e+02	1.40151306e+06
2.90000000e+02	1.41175663e+06
2.91000000e+02	1.42211440e+06
2.92000000e+02	1.43258832e+06
2.93000000e+02	1.44318036e+06
2.94000000e+02	1.45389253e+06
2.95000000e+02	1.46472685e+06
2.96000000e+02	1.47568537e+06
2.97000000e+02	1.48677016e+06
2.98000000e+02	1.49798331e+06
2.99000000e+02	1.50932694e+06
3.00000000e+02	1.52080319e+06
3.01000000e+02	1.53241422e+06
3.02000000e+02	1.54416222e+06
3.03000000e+02	1.55604938e+06
3.04000000e+02	1.56807796e+06
3.05000000e+02	1.58025019e+06
3.06000000e+02	1.59256835e+06
3.07000000e+02	1.60503474e+06
3.08000000e+02	1.61765168e+06
3.09000000e+02	1.63042150e+06
3.10000000e+02	1.64334658e+06
3.11000000e+02	1.65642930e+06
3.12000000e+02	1.66967207e+06
3.13000000e+02	1.68307730e+06
3.14000000e+02	1.69664747e+06
3.15000000e+02	1.71038502e+06
3.16000000e+02	1.72429247e+06
3.17000000e+02	1.73837231e+06
3.18000000e+02	1.75262709e+06
3.19000000e+02	1.76705935e+06
3.20000000e+02	1.78167168e+06
3.21000000e+02	1.79646667e+06
3.22000000e+02	1.81144693e+06
3.23000000e+02	1.82661509e+06
3.24000000e+02	1.84197382e+06
3.25000000e+02	1.85752578e+06
3.26000000e+02	1.87327366e+06
3.27000000e+02	1.88922017e+06
3.28000000e+02	1.90536805e+06
3.29000000e+02	1.92172003e+06
3.30000000e+02	1.93827888e+06
3.31000000e+02	1.95504737e+06
3.32000000e+02	1.97202832e+06
3.33000000e+02	1.98922451e+06
3.34000000e+02	2.00663879e+06
3.35000000e+02	2.02427400e+06
3.36000000e+02	2.04213299e+06
3.37000000e+02	2.06021863e+06
3.38000000e+02	2.07853380e+06
3.39000000e+02	2.09708140e+06
3.40000000e+02	2.11586434e+06
3.41000000e+02	2.13488553e+06
3.42000000e+02	2.15414790e+06
3.43000000e+02	2.17365439e+06
3.44000000e+02	2.19340794e+06
3.45000000e+02	2.21341150e+06
3.46000000e+02	2.23366803e+06
3.47000000e+02	2.25418049e+06
3.48000000e+02	2.27495184e+06
3.49000000e+02	2.29598506e+06
3.50000000e+02	2.31728311e+06
3.51000000e+02	2.33884895e+06
3.52000000e+02	2.36068556e+06
3.53000000e+02	2.38279590e+06
3.54000000e+02	2.40518293e+06
3.55000000e+02	2.42784960e+06
3.56000000e+02	2.45079884e+06
3.57000000e+02	2.47403360e+06
3.58000000e+02	2.49755679e+06
3.59000000e+02	2.52137132e+06
3.60000000e+02	2.54548008e+06
3.61000000e+02	2.56988595e+06
3.62000000e+02	2.59459176e+06
3.63000000e+02	2.61960036e+06
3.64000000e+02	2.64491453e+06
3.65000000e+02	2.67053706e+06
3.66000000e+02	2.69647070e+06
3.67000000e+02	2.72271814e+06
3.68000000e+02	2.74928207e+06
3.69000000e+02	2.77616512e+06
3.70000000e+02	2.80336989e+06
3.71000000e+02	2.83089892e+06
3.72000000e+02	2.85875471e+06
3.73000000e+02	2.88693972e+06
3.74000000e+02	2.91545634e+06
3.75000000e+02	2.94430690e+06
3.76000000e+02	2.97349368e+06
3.77000000e+02	3.00301890e+06
3.78000000e+02	3.03288469e+06
3.79000000e+02	3.06309312e+06
3.80000000e+02	3.09364619e+06
3.81000000e+02	3.12454581e+06
3.82000000e+02	3.15579380e+06
3.83000000e+02	3.18739192e+06
3.84000000e+02	3.21934180e+06
3.85000000e+02	3.25164500e+06
3.86000000e+02	3.28430298e+06
3.87000000e+02	3.31731708e+06
3.88000000e+02	3.35068854e+06
3.89000000e+02	3.38441849e+06
3.90000000e+02	3.41850793e+06
3.91000000e+02	3.45295776e+06
3.92000000e+02	3.48776873e+06
3.93000000e+02	3.52294147e+06
3.94000000e+02	3.55847649e+06
3.95000000e+02	3.59437413e+06
3.96000000e+02	3.63063460e+06
3.97000000e+02	3.66725798e+06
3.98000000e+02	3.70424417e+06
3.99000000e+02	3.74159293e+06
4.00000000e+02	3.77930385e+06
4.01000000e+02	3.81737637e+06
4.02000000e+02	3.85580974e+06
4.03000000e+02	3.89460305e+06
4.04000000e+02	3.93375521e+06
4.05000000e+02	3.97326496e+06
4.06000000e+02	4.01313083e+06
4.07000000e+02	4.05335118e+06
4.08000000e+02	4.09392418e+06
4.09000000e+02	4.13484781e+06
4.10000000e+02	4.17611982e+06
4.11000000e+02	4.21773780e+06
4.12000000e+02	4.25969911e+06
4.13000000e+02	4.30200091e+06
4.14000000e+02	4.34464016e+06
4.15000000e+02	4.38761359e+06
4.16000000e+02	4.43091774e+06
4.17000000e+02	4.47454892e+06
4.18000000e+02	4.51850323e+06
4.19000000e+02	4.56277654e+06
4.20000000e+02	4.60736452e+06
4.21000000e+02	4.65226261e+06
4.22000000e+02	4.69746603e+06
4.23000000e+02	4.74296978e+06
4.24000000e+02	4.78876865e+06
4.25000000e+02	4.83485718e+06
4.26000000e+02	4.88122972e+06
4.27000000e+02	4.92788040e+06
4.28000000e+02	4.97480310e+06
4.29000000e+02	5.02199152e+06
4.30000000e+02	5.06943913e+06
4.31000000e+02	5.11713917e+06
4.32000000e+02	5.16508469e+06
4.33000000e+02	5.21326851e+06
4.34000000e+02	5.26168325e+06
4.35000000e+02	5.31032131e+06
4.36000000e+02	5.35917491e+06
4.37000000e+02	5.40823604e+06
4.38000000e+02	5.45749648e+06
4.39000000e+02	5.50694785e+06
4.40000000e+02	5.55658154e+06
4.41000000e+02	5.60638873e+06
4.42000000e+02	5.65636044e+06
4.43000000e+02	5.70648747e+06
4.44000000e+02	5.75676043e+06
4.45000000e+02	5.80716973e+06
4.46000000e+02	5.85770561e+06
4.47000000e+02	5.90835808e+06
4.48000000e+02	5.95911697e+06
4.49000000e+02	6.00997191e+06
4.50000000e+02	6.06091233e+06
4.51000000e+02	6.11192745e+06
4.52000000e+02	6.16300627e+06
4.53000000e+02	6.21413760e+06
4.54000000e+02	6.26530999e+06
4.55000000e+02	6.31651180e+06
4.56000000e+02	6.36773111e+06
4.57000000e+02	6.41895578e+06
4.58000000e+02	6.47017338e+06
4.59000000e+02	6.52137124e+06
4.60000000e+02	6.57253637e+06
4.61000000e+02	6.62365547e+06
4.62000000e+02	6.67471495e+06
4.63000000e+02	6.72570084e+06
4.64000000e+02	6.77659883e+06
4.65000000e+02	6.82739419e+06
4.66000000e+02	6.87807183e+06
4.67000000e+02	6.92861616e+06
4.68000000e+02	6.97901118e+06
4.69000000e+02	7.02924035e+06
4.70000000e+02	7.07928663e+06
4.71000000e+02	7.12913242e+06
4.72000000e+02	7.17875951e+06
4.73000000e+02	7.22814907e+06
4.74000000e+02	7.27728162e+06
4.75000000e+02	7.32613695e+06
4.76000000e+02	7.37469414e+06
4.77000000e+02	7.42293147e+06
4.78000000e+02	7.47082641e+06
4.79000000e+02	7.51835557e+06
4.80000000e+02	7.56549466e+06
4.81000000e+02	7.61221846e+06
4.82000000e+02	7.65850076e+06
4.83000000e+02	7.70431437e+06
4.84000000e+02	7.74963102e+06
4.85000000e+02	7.79442137e+06
4.86000000e+02	7.83865497e+06
4.87000000e+02	7.88230023e+06
4.88000000e+02	7.92532439e+06
4.89000000e+02	7.96769350e+06
4.90000000e+02	8.00937240e+06
4.91000000e+02	8.05032473e+06
4.92000000e+02	8.09051289e+06
4.93000000e+02	8.12989805e+06
4.94000000e+02	8.16844019e+06
4.95000000e+02	8.20609806e+06
4.96000000e+02	8.24282924e+06
4.97000000e+02	8.27859014e+06
4.98000000e+02	8.31333608e+06
4.99000000e+02	8.34702131e+06
5.00000000e+02	8.37959906e+06
5.01000000e+02	8.41102165e+06
5.02000000e+02	8.44124053e+06
5.03000000e+02	8.47020639e+06
5.04000000e+02	8.49786930e+06
5.05000000e+02	8.52417876e+06
5.06000000e+02	8.54908388e+06
5.07000000e+02	8.57253352e+06
5.08000000e+02	8.59447641e+06
5.09000000e+02	8.61486138e+06
5.10000000e+02	8.63363749e+06
5.11000000e+02	8.65075423e+06
5.12000000e+02	8.66616175e+06
5.13000000e+02	8.67981105e+06
5.14000000e+02	8.69165421e+06
5.15000000e+02	8.70164465e+06
5.16000000e+02	8.70973730e+06
5.17000000e+02	8.71588893e+06
5.18000000e+02	8.72005835e+06
5.19000000e+02	8.72220666e+06
5.20000000e+02	8.72229753e+06
5.21000000e+02	8.72029743e+06
5.22000000e+02	8.71617589e+06
5.23000000e+02	8.70990571e+06
5.24000000e+02	8.70146325e+06
5.25000000e+02	8.69082859e+06
5.26000000e+02	8.67798576e+06
5.27000000e+02	8.66292294e+06
5.28000000e+02	8.64563263e+06
5.29000000e+02	8.62611179e+06
5.30000000e+02	8.60436197e+06
5.31000000e+02	8.58038942e+06
5.32000000e+02	8.55420517e+06
5.33000000e+02	8.52582508e+06
5.34000000e+02	8.49526983e+06
5.35000000e+02	8.46256496e+06
5.36000000e+02	8.42774078e+06
5.37000000e+02	8.39083234e+06
5.38000000e+02	8.35187929e+06
5.39000000e+02	8.31092576e+06
5.40000000e+02	8.26802020e+06
5.41000000e+02	8.22321521e+06
5.42000000e+02	8.17656726e+06
5.43000000e+02	8.12813652e+06
5.44000000e+02	8.07798655e+06
5.45000000e+02	8.02618403e+06
5.46000000e+02	7.97279846e+06
5.47000000e+02	7.91790184e+06
5.48000000e+02	7.86156834e+06
5.49000000e+02	7.80387398e+06
5.50000000e+02	7.74489628e+06
5.51000000e+02	7.68471393e+06
5.52000000e+02	7.62340641e+06
5.53000000e+02	7.56105372e+06
5.54000000e+02	7.49773600e+06
5.55000000e+02	7.43353323e+06
5.56000000e+02	7.36852490e+06
5.57000000e+02	7.30278974e+06
5.58000000e+02	7.23640544e+06
5.59000000e+02	7.16944837e+06
5.60000000e+02	7.10199336e+06
5.61000000e+02	7.03411346e+06
5.62000000e+02	6.96587974e+06
5.63000000e+02	6.89736112e+06
5.64000000e+02	6.82862420e+06
5.65000000e+02	6.75973312e+06
5.66000000e+02	6.69074943e+06
5.67000000e+02	6.62173200e+06
5.68000000e+02	6.55273696e+06
5.69000000e+02	6.48381761e+06
5.70000000e+02	6.41502439e+06
5.71000000e+02	6.34640485e+06
5.72000000e+02	6.27800369e+06
5.73000000e+02	6.20986268e+06
5.74000000e+02	6.14202075e+06
5.75000000e+02	6.07451402e+06
5.76000000e+02	6.00737578e+06
5.77000000e+02	5.94063662e+06
5.78000000e+02	5.87432443e+06
5.79000000e+02	5.80846452e+06
5.80000000e+02	5.74307965e+06
5.81000000e+02	5.67819017e+06
5.82000000e+02	5.61381406e+06
5.83000000e+02	5.54996702e+06
5.84000000e+02	5.48666261e+06
5.85000000e+02	5.42391231e+06
5.86000000e+02	5.36172561e+06
5.87000000e+02	5.30011013e+06
5.88000000e+02	5.23907171e+06
5.89000000e+02	5.17861451e+06
5.90000000e+02	5.11874109e+06
5.91000000e+02	5.05945251e+06
5.92000000e+02	5.00074844e+06
5.93000000e+02	4.94262720e+06
5.94000000e+02	4.88508588e+06
5.95000000e+02	4.82812045e+06
5.96000000e+02	4.77172580e+06
5.97000000e+02	4.71589582e+06
5.98000000e+02	4.66062352e+06
5.99000000e+02	4.60590104e+06
6.00000000e+02	4.55171979e+06
6.01000000e+02	4.49807044e+06
6.02000000e+02	4.44494304e+06
6.03000000e+02	4.39232707e+06
6.04000000e+02	4.34021145e+06
6.05000000e+02	4.28858468e+06
6.06000000e+02	4.23743481e+06
6.07000000e+02	4.18674951e+06
6.08000000e+02	4.13651615e+06
6.09000000e+02	4.08672180e+06
6.10000000e+02	4.03735331e+06
6.11000000e+02	3.98839730e+06
6.12000000e+02	3.93984024e+06
6.13000000e+02	3.89166846e+06
6.14000000e+02	3.84386817e+06
6.15000000e+02	3.79642554e+06
6.16000000e+02	3.74932670e+06
6.17000000e+02	3.70255773e+06
6.18000000e+02	3.65610474e+06
6.19000000e+02	3.60995385e+06
6.20000000e+02	3.56409121e+06
6.21000000e+02	3.51850303e+06
6.22000000e+02	3.47317561e+06
6.23000000e+02	3.42809536e+06
6.24000000e+02	3.38324879e+06
6.25000000e+02	3.33862255e+06
6.26000000e+02	3.29420345e+06
6.27000000e+02	3.24997844e+06
6.28000000e+02	3.20593463e+06
6.29000000e+02	3.16205935e+06
6.30000000e+02	3.11834008e+06
6.31000000e+02	3.07476452e+06
6.32000000e+02	3.03132055e+06
6.33000000e+02	2.98799631e+06
6.34000000e+02	2.94478015e+06
6.35000000e+02	2.90166068e+06
6.36000000e+02	2.85862668e+06
6.37000000e+02	2.81566726e+06
6.38000000e+02	2.77277168e+06
6.39000000e+02	2.72992961e+06
6.40000000e+02	2.68713092e+06
6.41000000e+02	2.64436576e+06
6.42000000e+02	2.60162453e+06
6.43000000e+02	2.55889789e+06
6.44000000e+02	2.51617683e+06
6.45000000e+02	2.47345266e+06
6.46000000e+02	2.43071701e+06
6.47000000e+02	2.38796173e+06
6.48000000e+02	2.34517902e+06
6.49000000e+02	2.30236136e+06
6.50000000e+02	2.25950169e+06
6.51000000e+02	2.21659309e+06
6.52000000e+02	2.17362900e+06
6.53000000e+02	2.13060321e+06
6.54000000e+02	2.08750990e+06
6.55000000e+02	2.04434338e+06
6.56000000e+02	2.00109851e+06
6.57000000e+02	1.95777033e+06
6.58000000e+02	1.91435439e+06
6.59000000e+02	1.87084669e+06
