# Profil de FluxX au temps 9.000000000000108e-12 
# simu : /Volumes/MERCURE/JOBS/Zeq2_tanh_50mic_7p5e19_B0_20ps/GNU/FluxX@y-c.set
# col 0 : abscisse (um)
# col 1 : FluxX (W/cm2)
0.00000000e+00	0.00000000e+00
1.00000000e+00	2.51053512e+08
2.00000000e+00	5.02297958e+08
3.00000000e+00	7.54357417e+08
4.00000000e+00	1.00708801e+09
5.00000000e+00	1.26094275e+09
6.00000000e+00	1.51621642e+09
7.00000000e+00	1.77319820e+09
8.00000000e+00	2.03217669e+09
9.00000000e+00	2.29344135e+09
1.00000000e+01	2.55728314e+09
1.10000000e+01	2.82399484e+09
1.20000000e+01	3.09387126e+09
1.30000000e+01	3.36720943e+09
1.40000000e+01	3.64430880e+09
1.50000000e+01	3.92547147e+09
1.60000000e+01	4.21100233e+09
1.70000000e+01	4.50120932e+09
1.80000000e+01	4.79640356e+09
1.90000000e+01	5.09689962e+09
2.00000000e+01	5.40301564e+09
2.10000000e+01	5.71507358e+09
2.20000000e+01	6.03339938e+09
2.30000000e+01	6.35832315e+09
2.40000000e+01	6.69017940e+09
2.50000000e+01	7.02930718e+09
2.60000000e+01	7.37605027e+09
2.70000000e+01	7.73075741e+09
2.80000000e+01	8.09378244e+09
2.90000000e+01	8.46548452e+09
3.00000000e+01	8.84622825e+09
3.10000000e+01	9.23638392e+09
3.20000000e+01	9.63632767e+09
3.30000000e+01	1.00464416e+10
3.40000000e+01	1.04671141e+10
3.50000000e+01	1.08987398e+10
3.60000000e+01	1.13417199e+10
3.70000000e+01	1.17964625e+10
3.80000000e+01	1.22633821e+10
3.90000000e+01	1.27429008e+10
4.00000000e+01	1.32354474e+10
4.10000000e+01	1.37414584e+10
4.20000000e+01	1.42613776e+10
4.30000000e+01	1.47956566e+10
4.40000000e+01	1.53447548e+10
4.50000000e+01	1.59091394e+10
4.60000000e+01	1.64892858e+10
4.70000000e+01	1.70856778e+10
4.80000000e+01	1.76988074e+10
4.90000000e+01	1.83291751e+10
5.00000000e+01	1.89772902e+10
5.10000000e+01	1.96436706e+10
5.20000000e+01	2.03288433e+10
5.30000000e+01	2.10333442e+10
5.40000000e+01	2.17577183e+10
5.50000000e+01	2.25025199e+10
5.60000000e+01	2.32683126e+10
5.70000000e+01	2.40556695e+10
5.80000000e+01	2.48651731e+10
5.90000000e+01	2.56974158e+10
6.00000000e+01	2.65529995e+10
6.10000000e+01	2.74325358e+10
6.20000000e+01	2.83366464e+10
6.30000000e+01	2.92659628e+10
6.40000000e+01	3.02211264e+10
6.50000000e+01	3.12027888e+10
6.60000000e+01	3.22116117e+10
6.70000000e+01	3.32482667e+10
6.80000000e+01	3.43134358e+10
6.90000000e+01	3.54078110e+10
7.00000000e+01	3.65320947e+10
7.10000000e+01	3.76869992e+10
7.20000000e+01	3.88732474e+10
7.30000000e+01	4.00915721e+10
7.40000000e+01	4.13427164e+10
7.50000000e+01	4.26274336e+10
7.60000000e+01	4.39464872e+10
7.70000000e+01	4.53006508e+10
7.80000000e+01	4.66907078e+10
7.90000000e+01	4.81174519e+10
8.00000000e+01	4.95816866e+10
8.10000000e+01	5.10842255e+10
8.20000000e+01	5.26258916e+10
8.30000000e+01	5.42075178e+10
8.40000000e+01	5.58299467e+10
8.50000000e+01	5.74940302e+10
8.60000000e+01	5.92006295e+10
8.70000000e+01	6.09506152e+10
8.80000000e+01	6.27448669e+10
8.90000000e+01	6.45842732e+10
9.00000000e+01	6.64697313e+10
9.10000000e+01	6.84021472e+10
9.20000000e+01	7.03824350e+10
9.30000000e+01	7.24115174e+10
9.40000000e+01	7.44903248e+10
9.50000000e+01	7.66197956e+10
9.60000000e+01	7.88008756e+10
9.70000000e+01	8.10345180e+10
9.80000000e+01	8.33216833e+10
9.90000000e+01	8.56633384e+10
1.00000000e+02	8.80604570e+10
1.01000000e+02	9.05140192e+10
1.02000000e+02	9.30250109e+10
1.03000000e+02	9.55944238e+10
1.04000000e+02	9.82232547e+10
1.05000000e+02	1.00912506e+11
1.06000000e+02	1.03663184e+11
1.07000000e+02	1.06476300e+11
1.08000000e+02	1.09352870e+11
1.09000000e+02	1.12293912e+11
1.10000000e+02	1.15300449e+11
1.11000000e+02	1.18373504e+11
1.12000000e+02	1.21514107e+11
1.13000000e+02	1.24723286e+11
1.14000000e+02	1.28002074e+11
1.15000000e+02	1.31351501e+11
1.16000000e+02	1.34772603e+11
1.17000000e+02	1.38266413e+11
1.18000000e+02	1.41833964e+11
1.19000000e+02	1.45476290e+11
1.20000000e+02	1.49194424e+11
1.21000000e+02	1.52989395e+11
1.22000000e+02	1.56862233e+11
1.23000000e+02	1.60813964e+11
1.24000000e+02	1.64845612e+11
1.25000000e+02	1.68958197e+11
1.26000000e+02	1.73152735e+11
1.27000000e+02	1.77430237e+11
1.28000000e+02	1.81791710e+11
1.29000000e+02	1.86238156e+11
1.30000000e+02	1.90770568e+11
1.31000000e+02	1.95389936e+11
1.32000000e+02	2.00097241e+11
1.33000000e+02	2.04893456e+11
1.34000000e+02	2.09779546e+11
1.35000000e+02	2.14756468e+11
1.36000000e+02	2.19825169e+11
1.37000000e+02	2.24986585e+11
1.38000000e+02	2.30241644e+11
1.39000000e+02	2.35591260e+11
1.40000000e+02	2.41036337e+11
1.41000000e+02	2.46577767e+11
1.42000000e+02	2.52216428e+11
1.43000000e+02	2.57953186e+11
1.44000000e+02	2.63788891e+11
1.45000000e+02	2.69724379e+11
1.46000000e+02	2.75760473e+11
1.47000000e+02	2.81897979e+11
1.48000000e+02	2.88137684e+11
1.49000000e+02	2.94480363e+11
1.50000000e+02	3.00926769e+11
1.51000000e+02	3.07477641e+11
1.52000000e+02	3.14133696e+11
1.53000000e+02	3.20895634e+11
1.54000000e+02	3.27764135e+11
1.55000000e+02	3.34739858e+11
1.56000000e+02	3.41823441e+11
1.57000000e+02	3.49015503e+11
1.58000000e+02	3.56316638e+11
1.59000000e+02	3.63727419e+11
1.60000000e+02	3.71248398e+11
1.61000000e+02	3.78880101e+11
1.62000000e+02	3.86623030e+11
1.63000000e+02	3.94477664e+11
1.64000000e+02	4.02444457e+11
1.65000000e+02	4.10523836e+11
1.66000000e+02	4.18716205e+11
1.67000000e+02	4.27021940e+11
1.68000000e+02	4.35441389e+11
1.69000000e+02	4.43974876e+11
1.70000000e+02	4.52622694e+11
1.71000000e+02	4.61385110e+11
1.72000000e+02	4.70262362e+11
1.73000000e+02	4.79254660e+11
1.74000000e+02	4.88362184e+11
1.75000000e+02	4.97585084e+11
1.76000000e+02	5.06923482e+11
1.77000000e+02	5.16377466e+11
1.78000000e+02	5.25947099e+11
1.79000000e+02	5.35632408e+11
1.80000000e+02	5.45433391e+11
1.81000000e+02	5.55350016e+11
1.82000000e+02	5.65382216e+11
1.83000000e+02	5.75529896e+11
1.84000000e+02	5.85792924e+11
1.85000000e+02	5.96171141e+11
1.86000000e+02	6.06664351e+11
1.87000000e+02	6.17272327e+11
1.88000000e+02	6.27994811e+11
1.89000000e+02	6.38831507e+11
1.90000000e+02	6.49782091e+11
1.91000000e+02	6.60846203e+11
1.92000000e+02	6.72023450e+11
1.93000000e+02	6.83313405e+11
1.94000000e+02	6.94715609e+11
1.95000000e+02	7.06229568e+11
1.96000000e+02	7.17854754e+11
1.97000000e+02	7.29590607e+11
1.98000000e+02	7.41436532e+11
1.99000000e+02	7.53391901e+11
2.00000000e+02	7.65456053e+11
2.01000000e+02	7.77628292e+11
2.02000000e+02	7.89907891e+11
2.03000000e+02	8.02294086e+11
2.04000000e+02	8.14786083e+11
2.05000000e+02	8.27383055e+11
2.06000000e+02	8.40084139e+11
2.07000000e+02	8.52888443e+11
2.08000000e+02	8.65795040e+11
2.09000000e+02	8.78802971e+11
2.10000000e+02	8.91911246e+11
2.11000000e+02	9.05118843e+11
2.12000000e+02	9.18424707e+11
2.13000000e+02	9.31827753e+11
2.14000000e+02	9.45326864e+11
2.15000000e+02	9.58920893e+11
2.16000000e+02	9.72608664e+11
2.17000000e+02	9.86388967e+11
2.18000000e+02	1.00026057e+12
2.19000000e+02	1.01422219e+12
2.20000000e+02	1.02827256e+12
2.21000000e+02	1.04241033e+12
2.22000000e+02	1.05663416e+12
2.23000000e+02	1.07094267e+12
2.24000000e+02	1.08533444e+12
2.25000000e+02	1.09980806e+12
2.26000000e+02	1.11436206e+12
2.27000000e+02	1.12899494e+12
2.28000000e+02	1.14370521e+12
2.29000000e+02	1.15849133e+12
2.30000000e+02	1.17335173e+12
2.31000000e+02	1.18828483e+12
2.32000000e+02	1.20328904e+12
2.33000000e+02	1.21836271e+12
2.34000000e+02	1.23350420e+12
2.35000000e+02	1.24871184e+12
2.36000000e+02	1.26398393e+12
2.37000000e+02	1.27931877e+12
2.38000000e+02	1.29471462e+12
2.39000000e+02	1.31016973e+12
2.40000000e+02	1.32568233e+12
2.41000000e+02	1.34125064e+12
2.42000000e+02	1.35687285e+12
2.43000000e+02	1.37254715e+12
2.44000000e+02	1.38827170e+12
2.45000000e+02	1.40404466e+12
2.46000000e+02	1.41986416e+12
2.47000000e+02	1.43572833e+12
2.48000000e+02	1.45163527e+12
2.49000000e+02	1.46758309e+12
2.50000000e+02	1.48356988e+12
2.51000000e+02	1.49959372e+12
2.52000000e+02	1.51565268e+12
2.53000000e+02	1.53174482e+12
2.54000000e+02	1.54786819e+12
2.55000000e+02	1.56402083e+12
2.56000000e+02	1.58020080e+12
2.57000000e+02	1.59640611e+12
2.58000000e+02	1.61263481e+12
2.59000000e+02	1.62888491e+12
2.60000000e+02	1.64515444e+12
2.61000000e+02	1.66144142e+12
2.62000000e+02	1.67774386e+12
2.63000000e+02	1.69405978e+12
2.64000000e+02	1.71038720e+12
2.65000000e+02	1.72672414e+12
2.66000000e+02	1.74306861e+12
2.67000000e+02	1.75941863e+12
2.68000000e+02	1.77577224e+12
2.69000000e+02	1.79212746e+12
2.70000000e+02	1.80848231e+12
2.71000000e+02	1.82483485e+12
2.72000000e+02	1.84118311e+12
2.73000000e+02	1.85752515e+12
2.74000000e+02	1.87385903e+12
2.75000000e+02	1.89018281e+12
2.76000000e+02	1.90649458e+12
2.77000000e+02	1.92279242e+12
2.78000000e+02	1.93907444e+12
2.79000000e+02	1.95533874e+12
2.80000000e+02	1.97158344e+12
2.81000000e+02	1.98780670e+12
2.82000000e+02	2.00400665e+12
2.83000000e+02	2.02018146e+12
2.84000000e+02	2.03632932e+12
2.85000000e+02	2.05244843e+12
2.86000000e+02	2.06853700e+12
2.87000000e+02	2.08459326e+12
2.88000000e+02	2.10061547e+12
2.89000000e+02	2.11660190e+12
2.90000000e+02	2.13255085e+12
2.91000000e+02	2.14846062e+12
2.92000000e+02	2.16432955e+12
2.93000000e+02	2.18015600e+12
2.94000000e+02	2.19593834e+12
2.95000000e+02	2.21167498e+12
2.96000000e+02	2.22736435e+12
2.97000000e+02	2.24300490e+12
2.98000000e+02	2.25859510e+12
2.99000000e+02	2.27413347e+12
3.00000000e+02	2.28961852e+12
3.01000000e+02	2.30504883e+12
3.02000000e+02	2.32042296e+12
3.03000000e+02	2.33573955e+12
3.04000000e+02	2.35099723e+12
3.05000000e+02	2.36619466e+12
3.06000000e+02	2.38133057e+12
3.07000000e+02	2.39640367e+12
3.08000000e+02	2.41141274e+12
3.09000000e+02	2.42635656e+12
3.10000000e+02	2.44123397e+12
3.11000000e+02	2.45604382e+12
3.12000000e+02	2.47078500e+12
3.13000000e+02	2.48545645e+12
3.14000000e+02	2.50005711e+12
3.15000000e+02	2.51458598e+12
3.16000000e+02	2.52904208e+12
3.17000000e+02	2.54342448e+12
3.18000000e+02	2.55773227e+12
3.19000000e+02	2.57196457e+12
3.20000000e+02	2.58612054e+12
3.21000000e+02	2.60019939e+12
3.22000000e+02	2.61420034e+12
3.23000000e+02	2.62812267e+12
3.24000000e+02	2.64196567e+12
3.25000000e+02	2.65572867e+12
3.26000000e+02	2.66941105e+12
3.27000000e+02	2.68301221e+12
3.28000000e+02	2.69653159e+12
3.29000000e+02	2.70996866e+12
3.30000000e+02	2.72332293e+12
3.31000000e+02	2.73659394e+12
3.32000000e+02	2.74978125e+12
3.33000000e+02	2.76288448e+12
3.34000000e+02	2.77590325e+12
3.35000000e+02	2.78883723e+12
3.36000000e+02	2.80168612e+12
3.37000000e+02	2.81444965e+12
3.38000000e+02	2.82712758e+12
3.39000000e+02	2.83971968e+12
3.40000000e+02	2.85222577e+12
3.41000000e+02	2.86464569e+12
3.42000000e+02	2.87697930e+12
3.43000000e+02	2.88922648e+12
3.44000000e+02	2.90138715e+12
3.45000000e+02	2.91346123e+12
3.46000000e+02	2.92544869e+12
3.47000000e+02	2.93734948e+12
3.48000000e+02	2.94916361e+12
3.49000000e+02	2.96089106e+12
3.50000000e+02	2.97253186e+12
3.51000000e+02	2.98408605e+12
3.52000000e+02	2.99555365e+12
3.53000000e+02	3.00693472e+12
3.54000000e+02	3.01822932e+12
3.55000000e+02	3.02943751e+12
3.56000000e+02	3.04055935e+12
3.57000000e+02	3.05159491e+12
3.58000000e+02	3.06254425e+12
3.59000000e+02	3.07340742e+12
3.60000000e+02	3.08418449e+12
3.61000000e+02	3.09487550e+12
3.62000000e+02	3.10548047e+12
3.63000000e+02	3.11599944e+12
3.64000000e+02	3.12643239e+12
3.65000000e+02	3.13677932e+12
3.66000000e+02	3.14704019e+12
3.67000000e+02	3.15721493e+12
3.68000000e+02	3.16730346e+12
3.69000000e+02	3.17730566e+12
3.70000000e+02	3.18722137e+12
3.71000000e+02	3.19705042e+12
3.72000000e+02	3.20679256e+12
3.73000000e+02	3.21644754e+12
3.74000000e+02	3.22601505e+12
3.75000000e+02	3.23549472e+12
3.76000000e+02	3.24488616e+12
3.77000000e+02	3.25418889e+12
3.78000000e+02	3.26340240e+12
3.79000000e+02	3.27252611e+12
3.80000000e+02	3.28155940e+12
3.81000000e+02	3.29050156e+12
3.82000000e+02	3.29935182e+12
3.83000000e+02	3.30810935e+12
3.84000000e+02	3.31677323e+12
3.85000000e+02	3.32534250e+12
3.86000000e+02	3.33381608e+12
3.87000000e+02	3.34219284e+12
3.88000000e+02	3.35047155e+12
3.89000000e+02	3.35865093e+12
3.90000000e+02	3.36672956e+12
3.91000000e+02	3.37470599e+12
3.92000000e+02	3.38257864e+12
3.93000000e+02	3.39034585e+12
3.94000000e+02	3.39800587e+12
3.95000000e+02	3.40555685e+12
3.96000000e+02	3.41299687e+12
3.97000000e+02	3.42032386e+12
3.98000000e+02	3.42753571e+12
3.99000000e+02	3.43463017e+12
4.00000000e+02	3.44160490e+12
4.01000000e+02	3.44845748e+12
4.02000000e+02	3.45518536e+12
4.03000000e+02	3.46178591e+12
4.04000000e+02	3.46825639e+12
4.05000000e+02	3.47459395e+12
4.06000000e+02	3.48079566e+12
4.07000000e+02	3.48685847e+12
4.08000000e+02	3.49277925e+12
4.09000000e+02	3.49855475e+12
4.10000000e+02	3.50418163e+12
4.11000000e+02	3.50965647e+12
4.12000000e+02	3.51497573e+12
4.13000000e+02	3.52013579e+12
4.14000000e+02	3.52513294e+12
4.15000000e+02	3.52996337e+12
4.16000000e+02	3.53462318e+12
4.17000000e+02	3.53910840e+12
4.18000000e+02	3.54341498e+12
4.19000000e+02	3.54753877e+12
4.20000000e+02	3.55147556e+12
4.21000000e+02	3.55522106e+12
4.22000000e+02	3.55877091e+12
4.23000000e+02	3.56212069e+12
4.24000000e+02	3.56526591e+12
4.25000000e+02	3.56820203e+12
4.26000000e+02	3.57092446e+12
4.27000000e+02	3.57342853e+12
4.28000000e+02	3.57570958e+12
4.29000000e+02	3.57776286e+12
4.30000000e+02	3.57958360e+12
4.31000000e+02	3.58116703e+12
4.32000000e+02	3.58250832e+12
4.33000000e+02	3.58360263e+12
4.34000000e+02	3.58444512e+12
4.35000000e+02	3.58503095e+12
4.36000000e+02	3.58535525e+12
4.37000000e+02	3.58541318e+12
4.38000000e+02	3.58519991e+12
4.39000000e+02	3.58471064e+12
4.40000000e+02	3.58394057e+12
4.41000000e+02	3.58288496e+12
4.42000000e+02	3.58153910e+12
4.43000000e+02	3.57989832e+12
4.44000000e+02	3.57795803e+12
4.45000000e+02	3.57571368e+12
4.46000000e+02	3.57316079e+12
4.47000000e+02	3.57029497e+12
4.48000000e+02	3.56711192e+12
4.49000000e+02	3.56360742e+12
4.50000000e+02	3.55977736e+12
4.51000000e+02	3.55561773e+12
4.52000000e+02	3.55112464e+12
4.53000000e+02	3.54629432e+12
4.54000000e+02	3.54112315e+12
4.55000000e+02	3.53560764e+12
4.56000000e+02	3.52974444e+12
4.57000000e+02	3.52353035e+12
4.58000000e+02	3.51696236e+12
4.59000000e+02	3.51003761e+12
4.60000000e+02	3.50275343e+12
4.61000000e+02	3.49510732e+12
4.62000000e+02	3.48709699e+12
4.63000000e+02	3.47872034e+12
4.64000000e+02	3.46997549e+12
4.65000000e+02	3.46086077e+12
4.66000000e+02	3.45137473e+12
4.67000000e+02	3.44151616e+12
4.68000000e+02	3.43128408e+12
4.69000000e+02	3.42067775e+12
4.70000000e+02	3.40969669e+12
4.71000000e+02	3.39834069e+12
4.72000000e+02	3.38660979e+12
4.73000000e+02	3.37450431e+12
4.74000000e+02	3.36202484e+12
4.75000000e+02	3.34917228e+12
4.76000000e+02	3.33594779e+12
4.77000000e+02	3.32235286e+12
4.78000000e+02	3.30838928e+12
4.79000000e+02	3.29405915e+12
4.80000000e+02	3.27936488e+12
4.81000000e+02	3.26430922e+12
4.82000000e+02	3.24889524e+12
4.83000000e+02	3.23312636e+12
4.84000000e+02	3.21700635e+12
4.85000000e+02	3.20053930e+12
4.86000000e+02	3.18372968e+12
4.87000000e+02	3.16658230e+12
4.88000000e+02	3.14910235e+12
4.89000000e+02	3.13129538e+12
4.90000000e+02	3.11316731e+12
4.91000000e+02	3.09472442e+12
4.92000000e+02	3.07597338e+12
4.93000000e+02	3.05692122e+12
4.94000000e+02	3.03757536e+12
4.95000000e+02	3.01794358e+12
4.96000000e+02	2.99803404e+12
4.97000000e+02	2.97785526e+12
4.98000000e+02	2.95741612e+12
4.99000000e+02	2.93672587e+12
5.00000000e+02	2.91579410e+12
5.01000000e+02	2.89463072e+12
5.02000000e+02	2.87324600e+12
5.03000000e+02	2.85165050e+12
5.04000000e+02	2.82985508e+12
5.05000000e+02	2.80787089e+12
5.06000000e+02	2.78570935e+12
5.07000000e+02	2.76338209e+12
5.08000000e+02	2.74090099e+12
5.09000000e+02	2.71827811e+12
5.10000000e+02	2.69552567e+12
5.11000000e+02	2.67265605e+12
5.12000000e+02	2.64968171e+12
5.13000000e+02	2.62661521e+12
5.14000000e+02	2.60346913e+12
5.15000000e+02	2.58025608e+12
5.16000000e+02	2.55698863e+12
5.17000000e+02	2.53367929e+12
5.18000000e+02	2.51034047e+12
5.19000000e+02	2.48698443e+12
5.20000000e+02	2.46362329e+12
5.21000000e+02	2.44026893e+12
5.22000000e+02	2.41693300e+12
5.23000000e+02	2.39362685e+12
5.24000000e+02	2.37036153e+12
5.25000000e+02	2.34714775e+12
5.26000000e+02	2.32399583e+12
5.27000000e+02	2.30091569e+12
5.28000000e+02	2.27791681e+12
5.29000000e+02	2.25500824e+12
5.30000000e+02	2.23219852e+12
5.31000000e+02	2.20949571e+12
5.32000000e+02	2.18690736e+12
5.33000000e+02	2.16444050e+12
5.34000000e+02	2.14210162e+12
5.35000000e+02	2.11989667e+12
5.36000000e+02	2.09783105e+12
5.37000000e+02	2.07590963e+12
5.38000000e+02	2.05413672e+12
5.39000000e+02	2.03251610e+12
5.40000000e+02	2.01105100e+12
5.41000000e+02	1.98974414e+12
5.42000000e+02	1.96859773e+12
5.43000000e+02	1.94761345e+12
5.44000000e+02	1.92679254e+12
5.45000000e+02	1.90613571e+12
5.46000000e+02	1.88564327e+12
5.47000000e+02	1.86531507e+12
5.48000000e+02	1.84515055e+12
5.49000000e+02	1.82514874e+12
5.50000000e+02	1.80530833e+12
5.51000000e+02	1.78562763e+12
5.52000000e+02	1.76610463e+12
5.53000000e+02	1.74673702e+12
5.54000000e+02	1.72752217e+12
5.55000000e+02	1.70845722e+12
5.56000000e+02	1.68953906e+12
5.57000000e+02	1.67076433e+12
5.58000000e+02	1.65212951e+12
5.59000000e+02	1.63363085e+12
5.60000000e+02	1.61526448e+12
5.61000000e+02	1.59702636e+12
5.62000000e+02	1.57891232e+12
5.63000000e+02	1.56091811e+12
5.64000000e+02	1.54303937e+12
5.65000000e+02	1.52527167e+12
5.66000000e+02	1.50761051e+12
5.67000000e+02	1.49005138e+12
5.68000000e+02	1.47258971e+12
5.69000000e+02	1.45522094e+12
5.70000000e+02	1.43794051e+12
5.71000000e+02	1.42074387e+12
5.72000000e+02	1.40362652e+12
5.73000000e+02	1.38658398e+12
5.74000000e+02	1.36961184e+12
5.75000000e+02	1.35270577e+12
5.76000000e+02	1.33586152e+12
5.77000000e+02	1.31907493e+12
5.78000000e+02	1.30234196e+12
5.79000000e+02	1.28565869e+12
5.80000000e+02	1.26902134e+12
5.81000000e+02	1.25242628e+12
5.82000000e+02	1.23587004e+12
5.83000000e+02	1.21934931e+12
5.84000000e+02	1.20286100e+12
5.85000000e+02	1.18640220e+12
5.86000000e+02	1.16997020e+12
5.87000000e+02	1.15356253e+12
5.88000000e+02	1.13717696e+12
5.89000000e+02	1.12081150e+12
5.90000000e+02	1.10446442e+12
5.91000000e+02	1.08813425e+12
5.92000000e+02	1.07181982e+12
5.93000000e+02	1.05552024e+12
5.94000000e+02	1.03923491e+12
5.95000000e+02	1.02296354e+12
5.96000000e+02	1.00670618e+12
5.97000000e+02	9.90463155e+11
5.98000000e+02	9.74235167e+11
5.99000000e+02	9.58023226e+11
6.00000000e+02	9.41828677e+11
6.01000000e+02	9.25653204e+11
6.02000000e+02	9.09498828e+11
6.03000000e+02	8.93367917e+11
6.04000000e+02	8.77263179e+11
6.05000000e+02	8.61187650e+11
6.06000000e+02	8.45144681e+11
6.07000000e+02	8.29137946e+11
6.08000000e+02	8.13171444e+11
6.09000000e+02	7.97249489e+11
6.10000000e+02	7.81376686e+11
6.11000000e+02	7.65557903e+11
6.12000000e+02	7.49798244e+11
6.13000000e+02	7.34103072e+11
6.14000000e+02	7.18478045e+11
6.15000000e+02	7.02929026e+11
6.16000000e+02	6.87461977e+11
6.17000000e+02	6.72082990e+11
6.18000000e+02	6.56798422e+11
6.19000000e+02	6.41614934e+11
6.20000000e+02	6.26538674e+11
6.21000000e+02	6.11576443e+11
6.22000000e+02	5.96734834e+11
6.23000000e+02	5.82020558e+11
6.24000000e+02	5.67440113e+11
6.25000000e+02	5.53000194e+11
6.26000000e+02	5.38707388e+11
6.27000000e+02	5.24568000e+11
6.28000000e+02	5.10588234e+11
6.29000000e+02	4.96774508e+11
6.30000000e+02	4.83132628e+11
6.31000000e+02	4.69668243e+11
6.32000000e+02	4.56387222e+11
6.33000000e+02	4.43294596e+11
6.34000000e+02	4.30395440e+11
6.35000000e+02	4.17694720e+11
6.36000000e+02	4.05196570e+11
6.37000000e+02	3.92905413e+11
6.38000000e+02	3.80824923e+11
6.39000000e+02	3.68958517e+11
6.40000000e+02	3.57309538e+11
6.41000000e+02	3.45880460e+11
6.42000000e+02	3.34673959e+11
6.43000000e+02	3.23691877e+11
6.44000000e+02	3.12935930e+11
6.45000000e+02	3.02407485e+11
6.46000000e+02	2.92107331e+11
6.47000000e+02	2.82036220e+11
6.48000000e+02	2.72194143e+11
6.49000000e+02	2.62581148e+11
6.50000000e+02	2.53196565e+11
6.51000000e+02	2.44039698e+11
6.52000000e+02	2.35109308e+11
6.53000000e+02	2.26403939e+11
6.54000000e+02	2.17921820e+11
6.55000000e+02	2.09660834e+11
6.56000000e+02	2.01618693e+11
6.57000000e+02	1.93792689e+11
6.58000000e+02	1.86180037e+11
6.59000000e+02	1.78777529e+11
