# Profil de FluxX au temps 2.009999999999998e-12 
# simu : /Volumes/MERCURE/JOBS/Zeq2_tanh_50mic_7p5e19_B0_20ps/GNU/FluxX@y-c.set
# col 0 : abscisse (um)
# col 1 : FluxX (W/cm2)
0.00000000e+00	0.00000000e+00
1.00000000e+00	1.09938059e+05
2.00000000e+00	1.22062427e+05
3.00000000e+00	3.73022402e+05
4.00000000e+00	4.54256694e+05
5.00000000e+00	5.24293218e+05
6.00000000e+00	5.91344681e+05
7.00000000e+00	6.58033155e+05
8.00000000e+00	7.25196781e+05
9.00000000e+00	7.93108472e+05
1.00000000e+01	8.61924255e+05
1.10000000e+01	9.31780840e+05
1.20000000e+01	1.00278991e+06
1.30000000e+01	1.07499169e+06
1.40000000e+01	1.14830832e+06
1.50000000e+01	1.22257963e+06
1.60000000e+01	1.29768925e+06
1.70000000e+01	1.37368019e+06
1.80000000e+01	1.45074781e+06
1.90000000e+01	1.52912751e+06
2.00000000e+01	1.60901192e+06
2.10000000e+01	1.69058211e+06
2.20000000e+01	1.77409288e+06
2.30000000e+01	1.85991674e+06
2.40000000e+01	1.94849486e+06
2.50000000e+01	2.04024200e+06
2.60000000e+01	2.13547265e+06
2.70000000e+01	2.23437551e+06
2.80000000e+01	2.33703854e+06
2.90000000e+01	2.44349559e+06
3.00000000e+01	2.55377177e+06
3.10000000e+01	2.66791900e+06
3.20000000e+01	2.78604485e+06
3.30000000e+01	2.90832874e+06
3.40000000e+01	3.03502655e+06
3.50000000e+01	3.16645507e+06
3.60000000e+01	3.30297132e+06
3.70000000e+01	3.44494386e+06
3.80000000e+01	3.59274189e+06
3.90000000e+01	3.74672262e+06
4.00000000e+01	3.90723117e+06
4.10000000e+01	4.07459504e+06
4.20000000e+01	4.24911036e+06
4.30000000e+01	4.43103124e+06
4.40000000e+01	4.62056740e+06
4.50000000e+01	4.81789318e+06
4.60000000e+01	5.02316668e+06
4.70000000e+01	5.23655414e+06
4.80000000e+01	5.45825295e+06
4.90000000e+01	5.68850253e+06
5.00000000e+01	5.92759423e+06
5.10000000e+01	6.17586412e+06
5.20000000e+01	6.43369254e+06
5.30000000e+01	6.70149222e+06
5.40000000e+01	6.97970517e+06
5.50000000e+01	7.26879503e+06
5.60000000e+01	7.56924582e+06
5.70000000e+01	7.88156040e+06
5.80000000e+01	8.20625787e+06
5.90000000e+01	8.54387754e+06
6.00000000e+01	8.89497502e+06
6.10000000e+01	9.26012957e+06
6.20000000e+01	9.63993774e+06
6.30000000e+01	1.00350211e+07
6.40000000e+01	1.04460236e+07
6.50000000e+01	1.08736138e+07
6.60000000e+01	1.13184866e+07
6.70000000e+01	1.17813635e+07
6.80000000e+01	1.22629944e+07
6.90000000e+01	1.27641591e+07
7.00000000e+01	1.32856687e+07
7.10000000e+01	1.38283660e+07
7.20000000e+01	1.43931271e+07
7.30000000e+01	1.49808632e+07
7.40000000e+01	1.55925229e+07
7.50000000e+01	1.62290919e+07
7.60000000e+01	1.68915944e+07
7.70000000e+01	1.75810974e+07
7.80000000e+01	1.82987084e+07
7.90000000e+01	1.90455802e+07
8.00000000e+01	1.98229126e+07
8.10000000e+01	2.06319521e+07
8.20000000e+01	2.14739958e+07
8.30000000e+01	2.23503936e+07
8.40000000e+01	2.32625496e+07
8.50000000e+01	2.42119246e+07
8.60000000e+01	2.52000390e+07
8.70000000e+01	2.62284750e+07
8.80000000e+01	2.72988785e+07
8.90000000e+01	2.84129621e+07
9.00000000e+01	2.95725103e+07
9.10000000e+01	3.07793780e+07
9.20000000e+01	3.20354968e+07
9.30000000e+01	3.33428765e+07
9.40000000e+01	3.47036093e+07
9.50000000e+01	3.61198729e+07
9.60000000e+01	3.75939339e+07
9.70000000e+01	3.91281505e+07
9.80000000e+01	4.07249778e+07
9.90000000e+01	4.23869707e+07
1.00000000e+02	4.41167881e+07
1.01000000e+02	4.59171984e+07
1.02000000e+02	4.77910823e+07
1.03000000e+02	4.97414382e+07
1.04000000e+02	5.17713864e+07
1.05000000e+02	5.38841752e+07
1.06000000e+02	5.60831855e+07
1.07000000e+02	5.83719350e+07
1.08000000e+02	6.07540863e+07
1.09000000e+02	6.32334510e+07
1.10000000e+02	6.58139953e+07
1.11000000e+02	6.84998486e+07
1.12000000e+02	7.12953083e+07
1.13000000e+02	7.42048463e+07
1.14000000e+02	7.72331184e+07
1.15000000e+02	8.03849695e+07
1.16000000e+02	8.36654424e+07
1.17000000e+02	8.70797856e+07
1.18000000e+02	9.06334614e+07
1.19000000e+02	9.43321563e+07
1.20000000e+02	9.81817871e+07
1.21000000e+02	1.02188513e+08
1.22000000e+02	1.06358745e+08
1.23000000e+02	1.10699153e+08
1.24000000e+02	1.15216681e+08
1.25000000e+02	1.19918558e+08
1.26000000e+02	1.24812305e+08
1.27000000e+02	1.29905751e+08
1.28000000e+02	1.35207044e+08
1.29000000e+02	1.40724666e+08
1.30000000e+02	1.46467443e+08
1.31000000e+02	1.52444562e+08
1.32000000e+02	1.58665583e+08
1.33000000e+02	1.65140460e+08
1.34000000e+02	1.71879549e+08
1.35000000e+02	1.78893630e+08
1.36000000e+02	1.86193923e+08
1.37000000e+02	1.93792106e+08
1.38000000e+02	2.01700332e+08
1.39000000e+02	2.09931250e+08
1.40000000e+02	2.18498026e+08
1.41000000e+02	2.27414361e+08
1.42000000e+02	2.36694519e+08
1.43000000e+02	2.46353340e+08
1.44000000e+02	2.56406272e+08
1.45000000e+02	2.66869395e+08
1.46000000e+02	2.77759442e+08
1.47000000e+02	2.89093828e+08
1.48000000e+02	3.00890680e+08
1.49000000e+02	3.13168863e+08
1.50000000e+02	3.25948011e+08
1.51000000e+02	3.39248561e+08
1.52000000e+02	3.53091780e+08
1.53000000e+02	3.67499803e+08
1.54000000e+02	3.82495668e+08
1.55000000e+02	3.98103353e+08
1.56000000e+02	4.14347811e+08
1.57000000e+02	4.31255014e+08
1.58000000e+02	4.48851993e+08
1.59000000e+02	4.67166879e+08
1.60000000e+02	4.86228950e+08
1.61000000e+02	5.06068679e+08
1.62000000e+02	5.26717778e+08
1.63000000e+02	5.48209253e+08
1.64000000e+02	5.70577456e+08
1.65000000e+02	5.93858136e+08
1.66000000e+02	6.18088499e+08
1.67000000e+02	6.43307270e+08
1.68000000e+02	6.69554747e+08
1.69000000e+02	6.96872871e+08
1.70000000e+02	7.25305293e+08
1.71000000e+02	7.54897440e+08
1.72000000e+02	7.85696589e+08
1.73000000e+02	8.17751942e+08
1.74000000e+02	8.51114706e+08
1.75000000e+02	8.85838170e+08
1.76000000e+02	9.21977795e+08
1.77000000e+02	9.59591297e+08
1.78000000e+02	9.98738744e+08
1.79000000e+02	1.03948264e+09
1.80000000e+02	1.08188805e+09
1.81000000e+02	1.12602267e+09
1.82000000e+02	1.17195695e+09
1.83000000e+02	1.21976422e+09
1.84000000e+02	1.26952077e+09
1.85000000e+02	1.32130602e+09
1.86000000e+02	1.37520259e+09
1.87000000e+02	1.43129648e+09
1.88000000e+02	1.48967717e+09
1.89000000e+02	1.55043780e+09
1.90000000e+02	1.61367526e+09
1.91000000e+02	1.67949041e+09
1.92000000e+02	1.74798818e+09
1.93000000e+02	1.81927777e+09
1.94000000e+02	1.89347283e+09
1.95000000e+02	1.97069159e+09
1.96000000e+02	2.05105711e+09
1.97000000e+02	2.13469743e+09
1.98000000e+02	2.22174577e+09
1.99000000e+02	2.31234078e+09
2.00000000e+02	2.40662671e+09
2.01000000e+02	2.50475365e+09
2.02000000e+02	2.60687781e+09
2.03000000e+02	2.71316168e+09
2.04000000e+02	2.82377437e+09
2.05000000e+02	2.93889181e+09
2.06000000e+02	3.05869706e+09
2.07000000e+02	3.18338058e+09
2.08000000e+02	3.31314054e+09
2.09000000e+02	3.44818312e+09
2.10000000e+02	3.58872283e+09
2.11000000e+02	3.73498284e+09
2.12000000e+02	3.88719534e+09
2.13000000e+02	4.04560189e+09
2.14000000e+02	4.21045379e+09
2.15000000e+02	4.38201247e+09
2.16000000e+02	4.56054991e+09
2.17000000e+02	4.74634903e+09
2.18000000e+02	4.93970415e+09
2.19000000e+02	5.14092144e+09
2.20000000e+02	5.35031936e+09
2.21000000e+02	5.56822919e+09
2.22000000e+02	5.79499551e+09
2.23000000e+02	6.03097674e+09
2.24000000e+02	6.27654564e+09
2.25000000e+02	6.53208997e+09
2.26000000e+02	6.79801298e+09
2.27000000e+02	7.07473408e+09
2.28000000e+02	7.36268943e+09
2.29000000e+02	7.66233264e+09
2.30000000e+02	7.97413544e+09
2.31000000e+02	8.29858834e+09
2.32000000e+02	8.63620144e+09
2.33000000e+02	8.98750512e+09
2.34000000e+02	9.35305087e+09
2.35000000e+02	9.73341209e+09
2.36000000e+02	1.01291849e+10
2.37000000e+02	1.05409892e+10
2.38000000e+02	1.09694692e+10
2.39000000e+02	1.14152947e+10
2.40000000e+02	1.18791621e+10
2.41000000e+02	1.23617950e+10
2.42000000e+02	1.28639457e+10
2.43000000e+02	1.33863961e+10
2.44000000e+02	1.39299586e+10
2.45000000e+02	1.44954776e+10
2.46000000e+02	1.50838307e+10
2.47000000e+02	1.56959295e+10
2.48000000e+02	1.63327214e+10
2.49000000e+02	1.69951906e+10
2.50000000e+02	1.76843595e+10
2.51000000e+02	1.84012902e+10
2.52000000e+02	1.91470860e+10
2.53000000e+02	1.99228928e+10
2.54000000e+02	2.07299004e+10
2.55000000e+02	2.15693447e+10
2.56000000e+02	2.24425089e+10
2.57000000e+02	2.33507251e+10
2.58000000e+02	2.42953765e+10
2.59000000e+02	2.52778986e+10
2.60000000e+02	2.62997819e+10
2.61000000e+02	2.73625726e+10
2.62000000e+02	2.84678759e+10
2.63000000e+02	2.96173567e+10
2.64000000e+02	3.08127428e+10
2.65000000e+02	3.20558262e+10
2.66000000e+02	3.33484656e+10
2.67000000e+02	3.46925887e+10
2.68000000e+02	3.60901942e+10
2.69000000e+02	3.75433543e+10
2.70000000e+02	3.90542171e+10
2.71000000e+02	4.06250090e+10
2.72000000e+02	4.22580369e+10
2.73000000e+02	4.39556913e+10
2.74000000e+02	4.57204482e+10
2.75000000e+02	4.75548724e+10
2.76000000e+02	4.94616194e+10
2.77000000e+02	5.14434387e+10
2.78000000e+02	5.35031764e+10
2.79000000e+02	5.56437777e+10
2.80000000e+02	5.78682900e+10
2.81000000e+02	6.01798657e+10
2.82000000e+02	6.25817648e+10
2.83000000e+02	6.50773579e+10
2.84000000e+02	6.76701292e+10
2.85000000e+02	7.03636792e+10
2.86000000e+02	7.31617278e+10
2.87000000e+02	7.60681168e+10
2.88000000e+02	7.90868131e+10
2.89000000e+02	8.22219114e+10
2.90000000e+02	8.54776370e+10
2.91000000e+02	8.88583485e+10
2.92000000e+02	9.23685407e+10
2.93000000e+02	9.60128470e+10
2.94000000e+02	9.97960422e+10
2.95000000e+02	1.03723045e+11
2.96000000e+02	1.07798919e+11
2.97000000e+02	1.12028878e+11
2.98000000e+02	1.16418286e+11
2.99000000e+02	1.20972659e+11
3.00000000e+02	1.25697667e+11
3.01000000e+02	1.30599136e+11
3.02000000e+02	1.35683051e+11
3.03000000e+02	1.40955554e+11
3.04000000e+02	1.46422948e+11
3.05000000e+02	1.52091695e+11
3.06000000e+02	1.57968420e+11
3.07000000e+02	1.64059907e+11
3.08000000e+02	1.70373101e+11
3.09000000e+02	1.76915110e+11
3.10000000e+02	1.83693199e+11
3.11000000e+02	1.90714791e+11
3.12000000e+02	1.97987469e+11
3.13000000e+02	2.05518966e+11
3.14000000e+02	2.13317170e+11
3.15000000e+02	2.21390117e+11
3.16000000e+02	2.29745986e+11
3.17000000e+02	2.38393101e+11
3.18000000e+02	2.47339918e+11
3.19000000e+02	2.56595027e+11
3.20000000e+02	2.66167139e+11
3.21000000e+02	2.76065085e+11
3.22000000e+02	2.86297808e+11
3.23000000e+02	2.96874350e+11
3.24000000e+02	3.07803849e+11
3.25000000e+02	3.19095526e+11
3.26000000e+02	3.30758676e+11
3.27000000e+02	3.42802654e+11
3.28000000e+02	3.55236868e+11
3.29000000e+02	3.68070761e+11
3.30000000e+02	3.81313801e+11
3.31000000e+02	3.94975463e+11
3.32000000e+02	4.09065217e+11
3.33000000e+02	4.23592507e+11
3.34000000e+02	4.38566738e+11
3.35000000e+02	4.53997256e+11
3.36000000e+02	4.69893327e+11
3.37000000e+02	4.86264120e+11
3.38000000e+02	5.03118683e+11
3.39000000e+02	5.20465923e+11
3.40000000e+02	5.38314582e+11
3.41000000e+02	5.56673215e+11
3.42000000e+02	5.75550162e+11
3.43000000e+02	5.94953526e+11
3.44000000e+02	6.14891145e+11
3.45000000e+02	6.35370566e+11
3.46000000e+02	6.56399016e+11
3.47000000e+02	6.77983376e+11
3.48000000e+02	7.00130147e+11
3.49000000e+02	7.22845427e+11
3.50000000e+02	7.46134876e+11
3.51000000e+02	7.70003688e+11
3.52000000e+02	7.94456557e+11
3.53000000e+02	8.19497651e+11
3.54000000e+02	8.45130575e+11
3.55000000e+02	8.71358341e+11
3.56000000e+02	8.98183338e+11
3.57000000e+02	9.25607299e+11
3.58000000e+02	9.53631267e+11
3.59000000e+02	9.82255568e+11
3.60000000e+02	1.01147977e+12
3.61000000e+02	1.04130268e+12
3.62000000e+02	1.07172226e+12
3.63000000e+02	1.10273566e+12
3.64000000e+02	1.13433915e+12
3.65000000e+02	1.16652808e+12
3.66000000e+02	1.19929690e+12
3.67000000e+02	1.23263909e+12
3.68000000e+02	1.26654715e+12
3.69000000e+02	1.30101259e+12
3.70000000e+02	1.33602589e+12
3.71000000e+02	1.37157645e+12
3.72000000e+02	1.40765264e+12
3.73000000e+02	1.44424172e+12
3.74000000e+02	1.48132986e+12
3.75000000e+02	1.51890209e+12
3.76000000e+02	1.55694231e+12
3.77000000e+02	1.59543329e+12
3.78000000e+02	1.63435663e+12
3.79000000e+02	1.67369277e+12
3.80000000e+02	1.71342098e+12
3.81000000e+02	1.75351936e+12
3.82000000e+02	1.79396483e+12
3.83000000e+02	1.83473315e+12
3.84000000e+02	1.87579890e+12
3.85000000e+02	1.91713550e+12
3.86000000e+02	1.95871521e+12
3.87000000e+02	2.00050916e+12
3.88000000e+02	2.04248733e+12
3.89000000e+02	2.08461860e+12
3.90000000e+02	2.12687073e+12
3.91000000e+02	2.16921042e+12
3.92000000e+02	2.21160331e+12
3.93000000e+02	2.25401400e+12
3.94000000e+02	2.29640610e+12
3.95000000e+02	2.33874224e+12
3.96000000e+02	2.38098409e+12
3.97000000e+02	2.42309246e+12
3.98000000e+02	2.46502723e+12
3.99000000e+02	2.50674749e+12
4.00000000e+02	2.54821153e+12
4.01000000e+02	2.58937688e+12
4.02000000e+02	2.63020039e+12
4.03000000e+02	2.67063824e+12
4.04000000e+02	2.71064601e+12
4.05000000e+02	2.75017873e+12
4.06000000e+02	2.78919093e+12
4.07000000e+02	2.82763669e+12
4.08000000e+02	2.86546971e+12
4.09000000e+02	2.90264337e+12
4.10000000e+02	2.93911076e+12
4.11000000e+02	2.97482479e+12
4.12000000e+02	3.00973822e+12
4.13000000e+02	3.04380372e+12
4.14000000e+02	3.07697398e+12
4.15000000e+02	3.10920173e+12
4.16000000e+02	3.14043983e+12
4.17000000e+02	3.17064135e+12
4.18000000e+02	3.19975964e+12
4.19000000e+02	3.22774837e+12
4.20000000e+02	3.25456166e+12
4.21000000e+02	3.28015412e+12
4.22000000e+02	3.30448093e+12
4.23000000e+02	3.32749794e+12
4.24000000e+02	3.34916170e+12
4.25000000e+02	3.36942963e+12
4.26000000e+02	3.38826000e+12
4.27000000e+02	3.40561208e+12
4.28000000e+02	3.42144621e+12
4.29000000e+02	3.43572387e+12
4.30000000e+02	3.44840779e+12
4.31000000e+02	3.45946200e+12
4.32000000e+02	3.46885197e+12
4.33000000e+02	3.47654466e+12
4.34000000e+02	3.48250863e+12
4.35000000e+02	3.48671412e+12
4.36000000e+02	3.48913316e+12
4.37000000e+02	3.48973963e+12
4.38000000e+02	3.48850942e+12
4.39000000e+02	3.48542043e+12
4.40000000e+02	3.48045278e+12
4.41000000e+02	3.47358882e+12
4.42000000e+02	3.46481325e+12
4.43000000e+02	3.45411326e+12
4.44000000e+02	3.44147858e+12
4.45000000e+02	3.42690160e+12
4.46000000e+02	3.41037749e+12
4.47000000e+02	3.39190426e+12
4.48000000e+02	3.37148289e+12
4.49000000e+02	3.34911745e+12
4.50000000e+02	3.32481513e+12
4.51000000e+02	3.29858640e+12
4.52000000e+02	3.27044509e+12
4.53000000e+02	3.24040845e+12
4.54000000e+02	3.20849729e+12
4.55000000e+02	3.17473601e+12
4.56000000e+02	3.13915272e+12
4.57000000e+02	3.10177930e+12
4.58000000e+02	3.06265145e+12
4.59000000e+02	3.02180875e+12
4.60000000e+02	2.97929472e+12
4.61000000e+02	2.93515684e+12
4.62000000e+02	2.88944660e+12
4.63000000e+02	2.84221946e+12
4.64000000e+02	2.79353488e+12
4.65000000e+02	2.74345630e+12
4.66000000e+02	2.69205106e+12
4.67000000e+02	2.63939038e+12
4.68000000e+02	2.58554927e+12
4.69000000e+02	2.53060640e+12
4.70000000e+02	2.47464400e+12
4.71000000e+02	2.41774767e+12
4.72000000e+02	2.36000627e+12
4.73000000e+02	2.30151162e+12
4.74000000e+02	2.24235836e+12
4.75000000e+02	2.18264362e+12
4.76000000e+02	2.12246676e+12
4.77000000e+02	2.06192907e+12
4.78000000e+02	2.00113341e+12
4.79000000e+02	1.94018383e+12
4.80000000e+02	1.87918521e+12
4.81000000e+02	1.81824282e+12
4.82000000e+02	1.75746190e+12
4.83000000e+02	1.69694720e+12
4.84000000e+02	1.63680250e+12
4.85000000e+02	1.57713015e+12
4.86000000e+02	1.51803057e+12
4.87000000e+02	1.45960175e+12
4.88000000e+02	1.40193876e+12
4.89000000e+02	1.34513327e+12
4.90000000e+02	1.28927304e+12
4.91000000e+02	1.23444150e+12
4.92000000e+02	1.18071726e+12
4.93000000e+02	1.12817373e+12
4.94000000e+02	1.07687871e+12
4.95000000e+02	1.02689404e+12
4.96000000e+02	9.78275308e+11
4.97000000e+02	9.31071590e+11
4.98000000e+02	8.85325229e+11
4.99000000e+02	8.41071693e+11
5.00000000e+02	7.98339485e+11
5.01000000e+02	7.57150112e+11
5.02000000e+02	7.17518118e+11
5.03000000e+02	6.79451183e+11
5.04000000e+02	6.42950281e+11
5.05000000e+02	6.08009905e+11
5.06000000e+02	5.74618348e+11
5.07000000e+02	5.42758031e+11
5.08000000e+02	5.12405893e+11
5.09000000e+02	4.83533812e+11
5.10000000e+02	4.56109067e+11
5.11000000e+02	4.30094827e+11
5.12000000e+02	4.05450662e+11
5.13000000e+02	3.82133059e+11
5.14000000e+02	3.60095945e+11
5.15000000e+02	3.39291210e+11
5.16000000e+02	3.19669203e+11
5.17000000e+02	3.01179226e+11
5.18000000e+02	2.83769986e+11
5.19000000e+02	2.67390022e+11
5.20000000e+02	2.51988102e+11
5.21000000e+02	2.37513568e+11
5.22000000e+02	2.23916653e+11
5.23000000e+02	2.11148749e+11
5.24000000e+02	1.99162633e+11
5.25000000e+02	1.87912656e+11
5.26000000e+02	1.77354890e+11
5.27000000e+02	1.67447239e+11
5.28000000e+02	1.58149517e+11
5.29000000e+02	1.49423493e+11
5.30000000e+02	1.41232911e+11
5.31000000e+02	1.33543488e+11
5.32000000e+02	1.26322886e+11
5.33000000e+02	1.19540671e+11
5.34000000e+02	1.13168262e+11
5.35000000e+02	1.07178862e+11
5.36000000e+02	1.01547387e+11
5.37000000e+02	9.62503872e+10
5.38000000e+02	9.12659631e+10
5.39000000e+02	8.65736840e+10
5.40000000e+02	8.21545026e+10
5.41000000e+02	7.79906725e+10
5.42000000e+02	7.40656664e+10
5.43000000e+02	7.03640974e+10
5.44000000e+02	6.68716437e+10
5.45000000e+02	6.35749761e+10
5.46000000e+02	6.04616896e+10
5.47000000e+02	5.75202385e+10
5.48000000e+02	5.47398757e+10
5.49000000e+02	5.21105958e+10
5.50000000e+02	4.96230812e+10
5.51000000e+02	4.72686530e+10
5.52000000e+02	4.50392241e+10
5.53000000e+02	4.29272568e+10
5.54000000e+02	4.09257221e+10
5.55000000e+02	3.90280634e+10
5.56000000e+02	3.72281616e+10
5.57000000e+02	3.55203039e+10
5.58000000e+02	3.38991539e+10
5.59000000e+02	3.23597248e+10
5.60000000e+02	3.08973542e+10
5.61000000e+02	2.95076807e+10
5.62000000e+02	2.81866227e+10
5.63000000e+02	2.69303584e+10
5.64000000e+02	2.57353075e+10
5.65000000e+02	2.45981141e+10
5.66000000e+02	2.35156313e+10
5.67000000e+02	2.24849064e+10
5.68000000e+02	2.15031678e+10
5.69000000e+02	2.05678122e+10
5.70000000e+02	1.96763936e+10
5.71000000e+02	1.88266120e+10
5.72000000e+02	1.80163044e+10
5.73000000e+02	1.72434349e+10
5.74000000e+02	1.65060865e+10
5.75000000e+02	1.58024536e+10
5.76000000e+02	1.51308342e+10
5.77000000e+02	1.44896235e+10
5.78000000e+02	1.38773075e+10
5.79000000e+02	1.32924572e+10
5.80000000e+02	1.27337233e+10
5.81000000e+02	1.21998309e+10
5.82000000e+02	1.16895752e+10
5.83000000e+02	1.12018168e+10
5.84000000e+02	1.07354780e+10
5.85000000e+02	1.02895389e+10
5.86000000e+02	9.86303352e+09
5.87000000e+02	9.45504726e+09
5.88000000e+02	9.06471325e+09
5.89000000e+02	8.69120977e+09
5.90000000e+02	8.33375751e+09
5.91000000e+02	7.99161718e+09
5.92000000e+02	7.66408707e+09
5.93000000e+02	7.35050101e+09
5.94000000e+02	7.05022626e+09
5.95000000e+02	6.76266165e+09
5.96000000e+02	6.48723581e+09
5.97000000e+02	6.22340549e+09
5.98000000e+02	5.97065401e+09
5.99000000e+02	5.72848983e+09
6.00000000e+02	5.49644514e+09
6.01000000e+02	5.27407459e+09
6.02000000e+02	5.06095411e+09
6.03000000e+02	4.85667974e+09
6.04000000e+02	4.66086658e+09
6.05000000e+02	4.47314779e+09
6.06000000e+02	4.29317366e+09
6.07000000e+02	4.12061071e+09
6.08000000e+02	3.95514085e+09
6.09000000e+02	3.79646062e+09
6.10000000e+02	3.64428041e+09
6.11000000e+02	3.49832381e+09
6.12000000e+02	3.35832691e+09
6.13000000e+02	3.22403768e+09
6.14000000e+02	3.09521543e+09
6.15000000e+02	2.97163020e+09
6.16000000e+02	2.85306226e+09
6.17000000e+02	2.73930160e+09
6.18000000e+02	2.63014751e+09
6.19000000e+02	2.52540806e+09
6.20000000e+02	2.42489975e+09
6.21000000e+02	2.32844705e+09
6.22000000e+02	2.23588210e+09
6.23000000e+02	2.14704428e+09
6.24000000e+02	2.06177989e+09
6.25000000e+02	1.97994188e+09
6.26000000e+02	1.90138946e+09
6.27000000e+02	1.82598790e+09
6.28000000e+02	1.75360817e+09
6.29000000e+02	1.68412675e+09
6.30000000e+02	1.61742535e+09
6.31000000e+02	1.55339067e+09
6.32000000e+02	1.49191418e+09
6.33000000e+02	1.43289192e+09
6.34000000e+02	1.37622429e+09
6.35000000e+02	1.32181585e+09
6.36000000e+02	1.26957515e+09
6.37000000e+02	1.21941454e+09
6.38000000e+02	1.17125002e+09
6.39000000e+02	1.12500106e+09
6.40000000e+02	1.08059046e+09
6.41000000e+02	1.03794423e+09
6.42000000e+02	9.96991416e+08
6.43000000e+02	9.57663973e+08
6.44000000e+02	9.19896663e+08
6.45000000e+02	8.83626920e+08
6.46000000e+02	8.48794737e+08
6.47000000e+02	8.15342563e+08
6.48000000e+02	7.83215190e+08
6.49000000e+02	7.52359658e+08
6.50000000e+02	7.22725166e+08
6.51000000e+02	6.94262977e+08
6.52000000e+02	6.66926328e+08
6.53000000e+02	6.40670353e+08
6.54000000e+02	6.15452003e+08
6.55000000e+02	5.91229964e+08
6.56000000e+02	5.67964591e+08
6.57000000e+02	5.45617836e+08
6.58000000e+02	5.24153179e+08
6.59000000e+02	5.03535558e+08
