# Profil de FluxX au temps 8.000000000000092e-12 
# simu : /Volumes/MERCURE/JOBS/Zeq2_tanh_50mic_7p5e19_B0_20ps/GNU/FluxX@y-c.set
# col 0 : abscisse (um)
# col 1 : FluxX (W/cm2)
0.00000000e+00	0.00000000e+00
1.00000000e+00	7.27997793e+07
2.00000000e+00	1.45611340e+08
3.00000000e+00	2.18879979e+08
4.00000000e+00	2.92282663e+08
5.00000000e+00	3.66092980e+08
6.00000000e+00	4.40425886e+08
7.00000000e+00	5.15390384e+08
8.00000000e+00	5.91094372e+08
9.00000000e+00	6.67646009e+08
1.00000000e+01	7.45154298e+08
1.10000000e+01	8.23729307e+08
1.20000000e+01	9.03482299e+08
1.30000000e+01	9.84525857e+08
1.40000000e+01	1.06697401e+09
1.50000000e+01	1.15094234e+09
1.60000000e+01	1.23654813e+09
1.70000000e+01	1.32391048e+09
1.80000000e+01	1.41315042e+09
1.90000000e+01	1.50439106e+09
2.00000000e+01	1.59775772e+09
2.10000000e+01	1.69337801e+09
2.20000000e+01	1.79138205e+09
2.30000000e+01	1.89190251e+09
2.40000000e+01	1.99507482e+09
2.50000000e+01	2.10103726e+09
2.60000000e+01	2.20993110e+09
2.70000000e+01	2.32190077e+09
2.80000000e+01	2.43709396e+09
2.90000000e+01	2.55566180e+09
3.00000000e+01	2.67775898e+09
3.10000000e+01	2.80354390e+09
3.20000000e+01	2.93317881e+09
3.30000000e+01	3.06682998e+09
3.40000000e+01	3.20466785e+09
3.50000000e+01	3.34686716e+09
3.60000000e+01	3.49360710e+09
3.70000000e+01	3.64507152e+09
3.80000000e+01	3.80144904e+09
3.90000000e+01	3.96293321e+09
4.00000000e+01	4.12972271e+09
4.10000000e+01	4.30202148e+09
4.20000000e+01	4.48003890e+09
4.30000000e+01	4.66398996e+09
4.40000000e+01	4.85409542e+09
4.50000000e+01	5.05058201e+09
4.60000000e+01	5.25368255e+09
4.70000000e+01	5.46363620e+09
4.80000000e+01	5.68068856e+09
4.90000000e+01	5.90509191e+09
5.00000000e+01	6.13710535e+09
5.10000000e+01	6.37699500e+09
5.20000000e+01	6.62503420e+09
5.30000000e+01	6.88150364e+09
5.40000000e+01	7.14669162e+09
5.50000000e+01	7.42089418e+09
5.60000000e+01	7.70441529e+09
5.70000000e+01	7.99756710e+09
5.80000000e+01	8.30067004e+09
5.90000000e+01	8.61405308e+09
6.00000000e+01	8.93805390e+09
6.10000000e+01	9.27301907e+09
6.20000000e+01	9.61930426e+09
6.30000000e+01	9.97727442e+09
6.40000000e+01	1.03473040e+10
6.50000000e+01	1.07297770e+10
6.60000000e+01	1.11250875e+10
6.70000000e+01	1.15336394e+10
6.80000000e+01	1.19558470e+10
6.90000000e+01	1.23921350e+10
7.00000000e+01	1.28429388e+10
7.10000000e+01	1.33087043e+10
7.20000000e+01	1.37898887e+10
7.30000000e+01	1.42869605e+10
7.40000000e+01	1.48003991e+10
7.50000000e+01	1.53306959e+10
7.60000000e+01	1.58783538e+10
7.70000000e+01	1.64438877e+10
7.80000000e+01	1.70278247e+10
7.90000000e+01	1.76307038e+10
8.00000000e+01	1.82530768e+10
8.10000000e+01	1.88955079e+10
8.20000000e+01	1.95585742e+10
8.30000000e+01	2.02428656e+10
8.40000000e+01	2.09489852e+10
8.50000000e+01	2.16775492e+10
8.60000000e+01	2.24291873e+10
8.70000000e+01	2.32045426e+10
8.80000000e+01	2.40042720e+10
8.90000000e+01	2.48290462e+10
9.00000000e+01	2.56795496e+10
9.10000000e+01	2.65564809e+10
9.20000000e+01	2.74605528e+10
9.30000000e+01	2.83924923e+10
9.40000000e+01	2.93530408e+10
9.50000000e+01	3.03429542e+10
9.60000000e+01	3.13630027e+10
9.70000000e+01	3.24139714e+10
9.80000000e+01	3.34966599e+10
9.90000000e+01	3.46118827e+10
1.00000000e+02	3.57604690e+10
1.01000000e+02	3.69432629e+10
1.02000000e+02	3.81611233e+10
1.03000000e+02	3.94149241e+10
1.04000000e+02	4.07055539e+10
1.05000000e+02	4.20339165e+10
1.06000000e+02	4.34009304e+10
1.07000000e+02	4.48075290e+10
1.08000000e+02	4.62546607e+10
1.09000000e+02	4.77432885e+10
1.10000000e+02	4.92743902e+10
1.11000000e+02	5.08489583e+10
1.12000000e+02	5.24680000e+10
1.13000000e+02	5.41325369e+10
1.14000000e+02	5.58436048e+10
1.15000000e+02	5.76022541e+10
1.16000000e+02	5.94095492e+10
1.17000000e+02	6.12665683e+10
1.18000000e+02	6.31744036e+10
1.19000000e+02	6.51341610e+10
1.20000000e+02	6.71469596e+10
1.21000000e+02	6.92139318e+10
1.22000000e+02	7.13362231e+10
1.23000000e+02	7.35149917e+10
1.24000000e+02	7.57514082e+10
1.25000000e+02	7.80466555e+10
1.26000000e+02	8.04019284e+10
1.27000000e+02	8.28184333e+10
1.28000000e+02	8.52973880e+10
1.29000000e+02	8.78400211e+10
1.30000000e+02	9.04475719e+10
1.31000000e+02	9.31212899e+10
1.32000000e+02	9.58624344e+10
1.33000000e+02	9.86722742e+10
1.34000000e+02	1.01552087e+11
1.35000000e+02	1.04503159e+11
1.36000000e+02	1.07526785e+11
1.37000000e+02	1.10624266e+11
1.38000000e+02	1.13796913e+11
1.39000000e+02	1.17046040e+11
1.40000000e+02	1.20372969e+11
1.41000000e+02	1.23779029e+11
1.42000000e+02	1.27265551e+11
1.43000000e+02	1.30833873e+11
1.44000000e+02	1.34485334e+11
1.45000000e+02	1.38221280e+11
1.46000000e+02	1.42043056e+11
1.47000000e+02	1.45952011e+11
1.48000000e+02	1.49949495e+11
1.49000000e+02	1.54036858e+11
1.50000000e+02	1.58215451e+11
1.51000000e+02	1.62486624e+11
1.52000000e+02	1.66851724e+11
1.53000000e+02	1.71312099e+11
1.54000000e+02	1.75869091e+11
1.55000000e+02	1.80524040e+11
1.56000000e+02	1.85278282e+11
1.57000000e+02	1.90133145e+11
1.58000000e+02	1.95089956e+11
1.59000000e+02	2.00150030e+11
1.60000000e+02	2.05314679e+11
1.61000000e+02	2.10585202e+11
1.62000000e+02	2.15962894e+11
1.63000000e+02	2.21449036e+11
1.64000000e+02	2.27044900e+11
1.65000000e+02	2.32751746e+11
1.66000000e+02	2.38570821e+11
1.67000000e+02	2.44503359e+11
1.68000000e+02	2.50550580e+11
1.69000000e+02	2.56713689e+11
1.70000000e+02	2.62993874e+11
1.71000000e+02	2.69392307e+11
1.72000000e+02	2.75910143e+11
1.73000000e+02	2.82548517e+11
1.74000000e+02	2.89308544e+11
1.75000000e+02	2.96191322e+11
1.76000000e+02	3.03197924e+11
1.77000000e+02	3.10329404e+11
1.78000000e+02	3.17586790e+11
1.79000000e+02	3.24971088e+11
1.80000000e+02	3.32483279e+11
1.81000000e+02	3.40124319e+11
1.82000000e+02	3.47895137e+11
1.83000000e+02	3.55796634e+11
1.84000000e+02	3.63829685e+11
1.85000000e+02	3.71995135e+11
1.86000000e+02	3.80293797e+11
1.87000000e+02	3.88726457e+11
1.88000000e+02	3.97293869e+11
1.89000000e+02	4.05996752e+11
1.90000000e+02	4.14835795e+11
1.91000000e+02	4.23811652e+11
1.92000000e+02	4.32924943e+11
1.93000000e+02	4.42176253e+11
1.94000000e+02	4.51566130e+11
1.95000000e+02	4.61095087e+11
1.96000000e+02	4.70763597e+11
1.97000000e+02	4.80572098e+11
1.98000000e+02	4.90520988e+11
1.99000000e+02	5.00610624e+11
2.00000000e+02	5.10841326e+11
2.01000000e+02	5.21213372e+11
2.02000000e+02	5.31726998e+11
2.03000000e+02	5.42382400e+11
2.04000000e+02	5.53179730e+11
2.05000000e+02	5.64119099e+11
2.06000000e+02	5.75200573e+11
2.07000000e+02	5.86424176e+11
2.08000000e+02	5.97789886e+11
2.09000000e+02	6.09297637e+11
2.10000000e+02	6.20947318e+11
2.11000000e+02	6.32738773e+11
2.12000000e+02	6.44671801e+11
2.13000000e+02	6.56746153e+11
2.14000000e+02	6.68961533e+11
2.15000000e+02	6.81317602e+11
2.16000000e+02	6.93813971e+11
2.17000000e+02	7.06450204e+11
2.18000000e+02	7.19225819e+11
2.19000000e+02	7.32140286e+11
2.20000000e+02	7.45193027e+11
2.21000000e+02	7.58383416e+11
2.22000000e+02	7.71710781e+11
2.23000000e+02	7.85174401e+11
2.24000000e+02	7.98773505e+11
2.25000000e+02	8.12507278e+11
2.26000000e+02	8.26374854e+11
2.27000000e+02	8.40375322e+11
2.28000000e+02	8.54507721e+11
2.29000000e+02	8.68771043e+11
2.30000000e+02	8.83164234e+11
2.31000000e+02	8.97686192e+11
2.32000000e+02	9.12335767e+11
2.33000000e+02	9.27111764e+11
2.34000000e+02	9.42012940e+11
2.35000000e+02	9.57038006e+11
2.36000000e+02	9.72185630e+11
2.37000000e+02	9.87454430e+11
2.38000000e+02	1.00284298e+12
2.39000000e+02	1.01834982e+12
2.40000000e+02	1.03397342e+12
2.41000000e+02	1.04971224e+12
2.42000000e+02	1.06556466e+12
2.43000000e+02	1.08152906e+12
2.44000000e+02	1.09760373e+12
2.45000000e+02	1.11378697e+12
2.46000000e+02	1.13007699e+12
2.47000000e+02	1.14647198e+12
2.48000000e+02	1.16297011e+12
2.49000000e+02	1.17956949e+12
2.50000000e+02	1.19626818e+12
2.51000000e+02	1.21306422e+12
2.52000000e+02	1.22995562e+12
2.53000000e+02	1.24694035e+12
2.54000000e+02	1.26401632e+12
2.55000000e+02	1.28118143e+12
2.56000000e+02	1.29843354e+12
2.57000000e+02	1.31577049e+12
2.58000000e+02	1.33319007e+12
2.59000000e+02	1.35069004e+12
2.60000000e+02	1.36826813e+12
2.61000000e+02	1.38592206e+12
2.62000000e+02	1.40364951e+12
2.63000000e+02	1.42144811e+12
2.64000000e+02	1.43931550e+12
2.65000000e+02	1.45724928e+12
2.66000000e+02	1.47524701e+12
2.67000000e+02	1.49330626e+12
2.68000000e+02	1.51142455e+12
2.69000000e+02	1.52959940e+12
2.70000000e+02	1.54782827e+12
2.71000000e+02	1.56610866e+12
2.72000000e+02	1.58443801e+12
2.73000000e+02	1.60281375e+12
2.74000000e+02	1.62123330e+12
2.75000000e+02	1.63969408e+12
2.76000000e+02	1.65819346e+12
2.77000000e+02	1.67672883e+12
2.78000000e+02	1.69529755e+12
2.79000000e+02	1.71389700e+12
2.80000000e+02	1.73252450e+12
2.81000000e+02	1.75117741e+12
2.82000000e+02	1.76985306e+12
2.83000000e+02	1.78854878e+12
2.84000000e+02	1.80726189e+12
2.85000000e+02	1.82598973e+12
2.86000000e+02	1.84472960e+12
2.87000000e+02	1.86347882e+12
2.88000000e+02	1.88223473e+12
2.89000000e+02	1.90099464e+12
2.90000000e+02	1.91975588e+12
2.91000000e+02	1.93851578e+12
2.92000000e+02	1.95727166e+12
2.93000000e+02	1.97602088e+12
2.94000000e+02	1.99476078e+12
2.95000000e+02	2.01348873e+12
2.96000000e+02	2.03220207e+12
2.97000000e+02	2.05089820e+12
2.98000000e+02	2.06957451e+12
2.99000000e+02	2.08822840e+12
3.00000000e+02	2.10685729e+12
3.01000000e+02	2.12545861e+12
3.02000000e+02	2.14402981e+12
3.03000000e+02	2.16256837e+12
3.04000000e+02	2.18107177e+12
3.05000000e+02	2.19953752e+12
3.06000000e+02	2.21796314e+12
3.07000000e+02	2.23634619e+12
3.08000000e+02	2.25468425e+12
3.09000000e+02	2.27297490e+12
3.10000000e+02	2.29121578e+12
3.11000000e+02	2.30940454e+12
3.12000000e+02	2.32753885e+12
3.13000000e+02	2.34561641e+12
3.14000000e+02	2.36363496e+12
3.15000000e+02	2.38159227e+12
3.16000000e+02	2.39948613e+12
3.17000000e+02	2.41731437e+12
3.18000000e+02	2.43507484e+12
3.19000000e+02	2.45276545e+12
3.20000000e+02	2.47038411e+12
3.21000000e+02	2.48792880e+12
3.22000000e+02	2.50539751e+12
3.23000000e+02	2.52278827e+12
3.24000000e+02	2.54009916e+12
3.25000000e+02	2.55732829e+12
3.26000000e+02	2.57447380e+12
3.27000000e+02	2.59153389e+12
3.28000000e+02	2.60850679e+12
3.29000000e+02	2.62539075e+12
3.30000000e+02	2.64218410e+12
3.31000000e+02	2.65888517e+12
3.32000000e+02	2.67549236e+12
3.33000000e+02	2.69200411e+12
3.34000000e+02	2.70841889e+12
3.35000000e+02	2.72473522e+12
3.36000000e+02	2.74095165e+12
3.37000000e+02	2.75706679e+12
3.38000000e+02	2.77307929e+12
3.39000000e+02	2.78898783e+12
3.40000000e+02	2.80479115e+12
3.41000000e+02	2.82048801e+12
3.42000000e+02	2.83607724e+12
3.43000000e+02	2.85155769e+12
3.44000000e+02	2.86692826e+12
3.45000000e+02	2.88218789e+12
3.46000000e+02	2.89733557e+12
3.47000000e+02	2.91237032e+12
3.48000000e+02	2.92729119e+12
3.49000000e+02	2.94209730e+12
3.50000000e+02	2.95678777e+12
3.51000000e+02	2.97136179e+12
3.52000000e+02	2.98581857e+12
3.53000000e+02	3.00015736e+12
3.54000000e+02	3.01437744e+12
3.55000000e+02	3.02847811e+12
3.56000000e+02	3.04245874e+12
3.57000000e+02	3.05631869e+12
3.58000000e+02	3.07005736e+12
3.59000000e+02	3.08367419e+12
3.60000000e+02	3.09716863e+12
3.61000000e+02	3.11054016e+12
3.62000000e+02	3.12378828e+12
3.63000000e+02	3.13691249e+12
3.64000000e+02	3.14991234e+12
3.65000000e+02	3.16278737e+12
3.66000000e+02	3.17553714e+12
3.67000000e+02	3.18816121e+12
3.68000000e+02	3.20065916e+12
3.69000000e+02	3.21303056e+12
3.70000000e+02	3.22527499e+12
3.71000000e+02	3.23739202e+12
3.72000000e+02	3.24938122e+12
3.73000000e+02	3.26124216e+12
3.74000000e+02	3.27297437e+12
3.75000000e+02	3.28457740e+12
3.76000000e+02	3.29605075e+12
3.77000000e+02	3.30739391e+12
3.78000000e+02	3.31860636e+12
3.79000000e+02	3.32968753e+12
3.80000000e+02	3.34063682e+12
3.81000000e+02	3.35145359e+12
3.82000000e+02	3.36213718e+12
3.83000000e+02	3.37268687e+12
3.84000000e+02	3.38310189e+12
3.85000000e+02	3.39338141e+12
3.86000000e+02	3.40352458e+12
3.87000000e+02	3.41353045e+12
3.88000000e+02	3.42339804e+12
3.89000000e+02	3.43312627e+12
3.90000000e+02	3.44271401e+12
3.91000000e+02	3.45216006e+12
3.92000000e+02	3.46146314e+12
3.93000000e+02	3.47062187e+12
3.94000000e+02	3.47963481e+12
3.95000000e+02	3.48850042e+12
3.96000000e+02	3.49721707e+12
3.97000000e+02	3.50578304e+12
3.98000000e+02	3.51419652e+12
3.99000000e+02	3.52245557e+12
4.00000000e+02	3.53055819e+12
4.01000000e+02	3.53850225e+12
4.02000000e+02	3.54628553e+12
4.03000000e+02	3.55390567e+12
4.04000000e+02	3.56136024e+12
4.05000000e+02	3.56864667e+12
4.06000000e+02	3.57576230e+12
4.07000000e+02	3.58270433e+12
4.08000000e+02	3.58946987e+12
4.09000000e+02	3.59605590e+12
4.10000000e+02	3.60245929e+12
4.11000000e+02	3.60867680e+12
4.12000000e+02	3.61470505e+12
4.13000000e+02	3.62054058e+12
4.14000000e+02	3.62617981e+12
4.15000000e+02	3.63161901e+12
4.16000000e+02	3.63685440e+12
4.17000000e+02	3.64188203e+12
4.18000000e+02	3.64669790e+12
4.19000000e+02	3.65129786e+12
4.20000000e+02	3.65567769e+12
4.21000000e+02	3.65983305e+12
4.22000000e+02	3.66375951e+12
4.23000000e+02	3.66745257e+12
4.24000000e+02	3.67090761e+12
4.25000000e+02	3.67411994e+12
4.26000000e+02	3.67708481e+12
4.27000000e+02	3.67979738e+12
4.28000000e+02	3.68225274e+12
4.29000000e+02	3.68444592e+12
4.30000000e+02	3.68637190e+12
4.31000000e+02	3.68802560e+12
4.32000000e+02	3.68940192e+12
4.33000000e+02	3.69049569e+12
4.34000000e+02	3.69130174e+12
4.35000000e+02	3.69181486e+12
4.36000000e+02	3.69202983e+12
4.37000000e+02	3.69194143e+12
4.38000000e+02	3.69154444e+12
4.39000000e+02	3.69083363e+12
4.40000000e+02	3.68980382e+12
4.41000000e+02	3.68844983e+12
4.42000000e+02	3.68676655e+12
4.43000000e+02	3.68474887e+12
4.44000000e+02	3.68239176e+12
4.45000000e+02	3.67969027e+12
4.46000000e+02	3.67663949e+12
4.47000000e+02	3.67323461e+12
4.48000000e+02	3.66947092e+12
4.49000000e+02	3.66534379e+12
4.50000000e+02	3.66084873e+12
4.51000000e+02	3.65598135e+12
4.52000000e+02	3.65073740e+12
4.53000000e+02	3.64511279e+12
4.54000000e+02	3.63910355e+12
4.55000000e+02	3.63270590e+12
4.56000000e+02	3.62591622e+12
4.57000000e+02	3.61873107e+12
4.58000000e+02	3.61114722e+12
4.59000000e+02	3.60316163e+12
4.60000000e+02	3.59477147e+12
4.61000000e+02	3.58597414e+12
4.62000000e+02	3.57676727e+12
4.63000000e+02	3.56714873e+12
4.64000000e+02	3.55711664e+12
4.65000000e+02	3.54666939e+12
4.66000000e+02	3.53580563e+12
4.67000000e+02	3.52452429e+12
4.68000000e+02	3.51282460e+12
4.69000000e+02	3.50070607e+12
4.70000000e+02	3.48816855e+12
4.71000000e+02	3.47521215e+12
4.72000000e+02	3.46183737e+12
4.73000000e+02	3.44804498e+12
4.74000000e+02	3.43383614e+12
4.75000000e+02	3.41921234e+12
4.76000000e+02	3.40417542e+12
4.77000000e+02	3.38872759e+12
4.78000000e+02	3.37287145e+12
4.79000000e+02	3.35660995e+12
4.80000000e+02	3.33994645e+12
4.81000000e+02	3.32288470e+12
4.82000000e+02	3.30542884e+12
4.83000000e+02	3.28758344e+12
4.84000000e+02	3.26935345e+12
4.85000000e+02	3.25074426e+12
4.86000000e+02	3.23176167e+12
4.87000000e+02	3.21241192e+12
4.88000000e+02	3.19270165e+12
4.89000000e+02	3.17263795e+12
4.90000000e+02	3.15222834e+12
4.91000000e+02	3.13148075e+12
4.92000000e+02	3.11040357e+12
4.93000000e+02	3.08900558e+12
4.94000000e+02	3.06729601e+12
4.95000000e+02	3.04528447e+12
4.96000000e+02	3.02298101e+12
4.97000000e+02	3.00039606e+12
4.98000000e+02	2.97754042e+12
4.99000000e+02	2.95442528e+12
5.00000000e+02	2.93106218e+12
5.01000000e+02	2.90746299e+12
5.02000000e+02	2.88363990e+12
5.03000000e+02	2.85960537e+12
5.04000000e+02	2.83537215e+12
5.05000000e+02	2.81095321e+12
5.06000000e+02	2.78636174e+12
5.07000000e+02	2.76161109e+12
5.08000000e+02	2.73671477e+12
5.09000000e+02	2.71168636e+12
5.10000000e+02	2.68653952e+12
5.11000000e+02	2.66128796e+12
5.12000000e+02	2.63594533e+12
5.13000000e+02	2.61052524e+12
5.14000000e+02	2.58504120e+12
5.15000000e+02	2.55950656e+12
5.16000000e+02	2.53393451e+12
5.17000000e+02	2.50833796e+12
5.18000000e+02	2.48272960e+12
5.19000000e+02	2.45712175e+12
5.20000000e+02	2.43152641e+12
5.21000000e+02	2.40595516e+12
5.22000000e+02	2.38041917e+12
5.23000000e+02	2.35492914e+12
5.24000000e+02	2.32949525e+12
5.25000000e+02	2.30412719e+12
5.26000000e+02	2.27883407e+12
5.27000000e+02	2.25362447e+12
5.28000000e+02	2.22850633e+12
5.29000000e+02	2.20348704e+12
5.30000000e+02	2.17857334e+12
5.31000000e+02	2.15377136e+12
5.32000000e+02	2.12908661e+12
5.33000000e+02	2.10452398e+12
5.34000000e+02	2.08008774e+12
5.35000000e+02	2.05578154e+12
5.36000000e+02	2.03160844e+12
5.37000000e+02	2.00757089e+12
5.38000000e+02	1.98367079e+12
5.39000000e+02	1.95990947e+12
5.40000000e+02	1.93628772e+12
5.41000000e+02	1.91280583e+12
5.42000000e+02	1.88946359e+12
5.43000000e+02	1.86626033e+12
5.44000000e+02	1.84319492e+12
5.45000000e+02	1.82026586e+12
5.46000000e+02	1.79747123e+12
5.47000000e+02	1.77480876e+12
5.48000000e+02	1.75227588e+12
5.49000000e+02	1.72986969e+12
5.50000000e+02	1.70758704e+12
5.51000000e+02	1.68542453e+12
5.52000000e+02	1.66337857e+12
5.53000000e+02	1.64144538e+12
5.54000000e+02	1.61962102e+12
5.55000000e+02	1.59790143e+12
5.56000000e+02	1.57628247e+12
5.57000000e+02	1.55475991e+12
5.58000000e+02	1.53332949e+12
5.59000000e+02	1.51198693e+12
5.60000000e+02	1.49072798e+12
5.61000000e+02	1.46954841e+12
5.62000000e+02	1.44844406e+12
5.63000000e+02	1.42741085e+12
5.64000000e+02	1.40644483e+12
5.65000000e+02	1.38554217e+12
5.66000000e+02	1.36469923e+12
5.67000000e+02	1.34391253e+12
5.68000000e+02	1.32317880e+12
5.69000000e+02	1.30249503e+12
5.70000000e+02	1.28185842e+12
5.71000000e+02	1.26126650e+12
5.72000000e+02	1.24071704e+12
5.73000000e+02	1.22020819e+12
5.74000000e+02	1.19973838e+12
5.75000000e+02	1.17930645e+12
5.76000000e+02	1.15891158e+12
5.77000000e+02	1.13855335e+12
5.78000000e+02	1.11823178e+12
5.79000000e+02	1.09794726e+12
5.80000000e+02	1.07770068e+12
5.81000000e+02	1.05749333e+12
5.82000000e+02	1.03732699e+12
5.83000000e+02	1.01720389e+12
5.84000000e+02	9.97126744e+11
5.85000000e+02	9.77098749e+11
5.86000000e+02	9.57123576e+11
5.87000000e+02	9.37205376e+11
5.88000000e+02	9.17348780e+11
5.89000000e+02	8.97558890e+11
5.90000000e+02	8.77841268e+11
5.91000000e+02	8.58201929e+11
5.92000000e+02	8.38647325e+11
5.93000000e+02	8.19184328e+11
5.94000000e+02	7.99820211e+11
5.95000000e+02	7.80562621e+11
5.96000000e+02	7.61419555e+11
5.97000000e+02	7.42399332e+11
5.98000000e+02	7.23510560e+11
5.99000000e+02	7.04762109e+11
6.00000000e+02	6.86163066e+11
6.01000000e+02	6.67722695e+11
6.02000000e+02	6.49450398e+11
6.03000000e+02	6.31355676e+11
6.04000000e+02	6.13448090e+11
6.05000000e+02	5.95737214e+11
6.06000000e+02	5.78232572e+11
6.07000000e+02	5.60943600e+11
6.08000000e+02	5.43879602e+11
6.09000000e+02	5.27049721e+11
6.10000000e+02	5.10462893e+11
6.11000000e+02	4.94127775e+11
6.12000000e+02	4.78052685e+11
6.13000000e+02	4.62245601e+11
6.14000000e+02	4.46714112e+11
6.15000000e+02	4.31465454e+11
6.16000000e+02	4.16506310e+11
6.17000000e+02	4.01842859e+11
6.18000000e+02	3.87480853e+11
6.19000000e+02	3.73425469e+11
6.20000000e+02	3.59681315e+11
6.21000000e+02	3.46252411e+11
6.22000000e+02	3.33142198e+11
6.23000000e+02	3.20353517e+11
6.24000000e+02	3.07888582e+11
6.25000000e+02	2.95749009e+11
6.26000000e+02	2.83935865e+11
6.27000000e+02	2.72449575e+11
6.28000000e+02	2.61289944e+11
6.29000000e+02	2.50456233e+11
6.30000000e+02	2.39947205e+11
6.31000000e+02	2.29761007e+11
6.32000000e+02	2.19895248e+11
6.33000000e+02	2.10347137e+11
6.34000000e+02	2.01113349e+11
6.35000000e+02	1.92190082e+11
6.36000000e+02	1.83573216e+11
6.37000000e+02	1.75258177e+11
6.38000000e+02	1.67240014e+11
6.39000000e+02	1.59513531e+11
6.40000000e+02	1.52073161e+11
6.41000000e+02	1.44913090e+11
6.42000000e+02	1.38027312e+11
6.43000000e+02	1.31409535e+11
6.44000000e+02	1.25053361e+11
6.45000000e+02	1.18952215e+11
6.46000000e+02	1.13099380e+11
6.47000000e+02	1.07488091e+11
6.48000000e+02	1.02111455e+11
6.49000000e+02	9.69625734e+10
6.50000000e+02	9.20345056e+10
6.51000000e+02	8.73202946e+10
6.52000000e+02	8.28130243e+10
6.53000000e+02	7.85057766e+10
6.54000000e+02	7.43917126e+10
6.55000000e+02	7.04640345e+10
6.56000000e+02	6.67160277e+10
6.57000000e+02	6.31410719e+10
6.58000000e+02	5.97326324e+10
6.59000000e+02	5.64843009e+10
