# Profil de FluxX au temps 1.000000000000012e-11 
# simu : /Volumes/MERCURE/JOBS/Zeq2_tanh_50mic_7p5e19_B0_20ps/GNU/FluxX@y-c.set
# col 0 : abscisse (um)
# col 1 : FluxX (W/cm2)
0.00000000e+00	0.00000000e+00
1.00000000e+00	7.23628368e+08
2.00000000e+00	1.44773823e+09
3.00000000e+00	2.17325099e+09
4.00000000e+00	2.90031927e+09
5.00000000e+00	3.62967771e+09
6.00000000e+00	4.36192630e+09
7.00000000e+00	5.09764276e+09
8.00000000e+00	5.83740819e+09
9.00000000e+00	6.58180398e+09
1.00000000e+01	7.33141749e+09
1.10000000e+01	8.08683278e+09
1.20000000e+01	8.84863719e+09
1.30000000e+01	9.61741815e+09
1.40000000e+01	1.03937687e+10
1.50000000e+01	1.11782822e+10
1.60000000e+01	1.19715519e+10
1.70000000e+01	1.27741774e+10
1.80000000e+01	1.35867598e+10
1.90000000e+01	1.44098984e+10
2.00000000e+01	1.52442034e+10
2.10000000e+01	1.60902810e+10
2.20000000e+01	1.69487415e+10
2.30000000e+01	1.78202016e+10
2.40000000e+01	1.87052788e+10
2.50000000e+01	1.96045941e+10
2.60000000e+01	2.05187706e+10
2.70000000e+01	2.14484395e+10
2.80000000e+01	2.23942320e+10
2.90000000e+01	2.33567841e+10
3.00000000e+01	2.43367350e+10
3.10000000e+01	2.53347300e+10
3.20000000e+01	2.63514243e+10
3.30000000e+01	2.73874783e+10
3.40000000e+01	2.84435424e+10
3.50000000e+01	2.95202736e+10
3.60000000e+01	3.06183383e+10
3.70000000e+01	3.17384042e+10
3.80000000e+01	3.28811458e+10
3.90000000e+01	3.40472417e+10
4.00000000e+01	3.52373752e+10
4.10000000e+01	3.64522371e+10
4.20000000e+01	3.76925200e+10
4.30000000e+01	3.89589225e+10
4.40000000e+01	4.02521478e+10
4.50000000e+01	4.15729031e+10
4.60000000e+01	4.29219211e+10
4.70000000e+01	4.42999209e+10
4.80000000e+01	4.57076131e+10
4.90000000e+01	4.71457211e+10
5.00000000e+01	4.86149750e+10
5.10000000e+01	5.01161108e+10
5.20000000e+01	5.16498696e+10
5.30000000e+01	5.32169973e+10
5.40000000e+01	5.48182448e+10
5.50000000e+01	5.64543675e+10
5.60000000e+01	5.81261254e+10
5.70000000e+01	5.98342830e+10
5.80000000e+01	6.15796092e+10
5.90000000e+01	6.33628772e+10
6.00000000e+01	6.51848642e+10
6.10000000e+01	6.70463518e+10
6.20000000e+01	6.89481254e+10
6.30000000e+01	7.08909745e+10
6.40000000e+01	7.28756920e+10
6.50000000e+01	7.49030747e+10
6.60000000e+01	7.69739229e+10
6.70000000e+01	7.90890399e+10
6.80000000e+01	8.12492326e+10
6.90000000e+01	8.34553106e+10
7.00000000e+01	8.57080865e+10
7.10000000e+01	8.80083755e+10
7.20000000e+01	9.03569953e+10
7.30000000e+01	9.27547657e+10
7.40000000e+01	9.52025089e+10
7.50000000e+01	9.77010487e+10
7.60000000e+01	1.00251211e+11
7.70000000e+01	1.02853822e+11
7.80000000e+01	1.05509710e+11
7.90000000e+01	1.08219705e+11
8.00000000e+01	1.10984635e+11
8.10000000e+01	1.13805332e+11
8.20000000e+01	1.16682626e+11
8.30000000e+01	1.19617347e+11
8.40000000e+01	1.22610326e+11
8.50000000e+01	1.25662390e+11
8.60000000e+01	1.28774370e+11
8.70000000e+01	1.31947093e+11
8.80000000e+01	1.35181383e+11
8.90000000e+01	1.38478065e+11
9.00000000e+01	1.41837961e+11
9.10000000e+01	1.45261891e+11
9.20000000e+01	1.48750670e+11
9.30000000e+01	1.52305113e+11
9.40000000e+01	1.55926030e+11
9.50000000e+01	1.59614227e+11
9.60000000e+01	1.63370507e+11
9.70000000e+01	1.67195667e+11
9.80000000e+01	1.71090500e+11
9.90000000e+01	1.75055796e+11
1.00000000e+02	1.79092335e+11
1.01000000e+02	1.83200896e+11
1.02000000e+02	1.87382248e+11
1.03000000e+02	1.91637156e+11
1.04000000e+02	1.95966376e+11
1.05000000e+02	2.00370658e+11
1.06000000e+02	2.04850745e+11
1.07000000e+02	2.09407370e+11
1.08000000e+02	2.14041260e+11
1.09000000e+02	2.18753130e+11
1.10000000e+02	2.23543688e+11
1.11000000e+02	2.28413633e+11
1.12000000e+02	2.33363652e+11
1.13000000e+02	2.38394424e+11
1.14000000e+02	2.43506615e+11
1.15000000e+02	2.48700881e+11
1.16000000e+02	2.53977868e+11
1.17000000e+02	2.59338207e+11
1.18000000e+02	2.64782519e+11
1.19000000e+02	2.70311412e+11
1.20000000e+02	2.75925481e+11
1.21000000e+02	2.81625308e+11
1.22000000e+02	2.87411459e+11
1.23000000e+02	2.93284489e+11
1.24000000e+02	2.99244937e+11
1.25000000e+02	3.05293328e+11
1.26000000e+02	3.11430170e+11
1.27000000e+02	3.17655958e+11
1.28000000e+02	3.23971168e+11
1.29000000e+02	3.30376263e+11
1.30000000e+02	3.36871687e+11
1.31000000e+02	3.43457868e+11
1.32000000e+02	3.50135217e+11
1.33000000e+02	3.56904127e+11
1.34000000e+02	3.63764973e+11
1.35000000e+02	3.70718112e+11
1.36000000e+02	3.77763881e+11
1.37000000e+02	3.84902601e+11
1.38000000e+02	3.92134570e+11
1.39000000e+02	3.99460071e+11
1.40000000e+02	4.06879364e+11
1.41000000e+02	4.14392689e+11
1.42000000e+02	4.22000268e+11
1.43000000e+02	4.29702299e+11
1.44000000e+02	4.37498962e+11
1.45000000e+02	4.45390415e+11
1.46000000e+02	4.53376794e+11
1.47000000e+02	4.61458214e+11
1.48000000e+02	4.69634768e+11
1.49000000e+02	4.77906528e+11
1.50000000e+02	4.86273541e+11
1.51000000e+02	4.94735835e+11
1.52000000e+02	5.03293412e+11
1.53000000e+02	5.11946254e+11
1.54000000e+02	5.20694319e+11
1.55000000e+02	5.29537542e+11
1.56000000e+02	5.38475833e+11
1.57000000e+02	5.47509081e+11
1.58000000e+02	5.56637150e+11
1.59000000e+02	5.65859880e+11
1.60000000e+02	5.75177090e+11
1.61000000e+02	5.84588571e+11
1.62000000e+02	5.94094092e+11
1.63000000e+02	6.03693399e+11
1.64000000e+02	6.13386212e+11
1.65000000e+02	6.23172228e+11
1.66000000e+02	6.33051119e+11
1.67000000e+02	6.43022533e+11
1.68000000e+02	6.53086094e+11
1.69000000e+02	6.63241401e+11
1.70000000e+02	6.73488030e+11
1.71000000e+02	6.83825531e+11
1.72000000e+02	6.94253431e+11
1.73000000e+02	7.04771233e+11
1.74000000e+02	7.15378413e+11
1.75000000e+02	7.26074428e+11
1.76000000e+02	7.36858705e+11
1.77000000e+02	7.47730652e+11
1.78000000e+02	7.58689651e+11
1.79000000e+02	7.69735060e+11
1.80000000e+02	7.80866213e+11
1.81000000e+02	7.92082422e+11
1.82000000e+02	8.03382974e+11
1.83000000e+02	8.14767134e+11
1.84000000e+02	8.26234144e+11
1.85000000e+02	8.37783221e+11
1.86000000e+02	8.49413562e+11
1.87000000e+02	8.61124340e+11
1.88000000e+02	8.72914705e+11
1.89000000e+02	8.84783787e+11
1.90000000e+02	8.96730692e+11
1.91000000e+02	9.08754505e+11
1.92000000e+02	9.20854290e+11
1.93000000e+02	9.33029090e+11
1.94000000e+02	9.45277926e+11
1.95000000e+02	9.57599799e+11
1.96000000e+02	9.69993691e+11
1.97000000e+02	9.82458562e+11
1.98000000e+02	9.94993353e+11
1.99000000e+02	1.00759699e+12
2.00000000e+02	1.02026836e+12
2.01000000e+02	1.03300637e+12
2.02000000e+02	1.04580987e+12
2.03000000e+02	1.05867771e+12
2.04000000e+02	1.07160872e+12
2.05000000e+02	1.08460171e+12
2.06000000e+02	1.09765548e+12
2.07000000e+02	1.11076881e+12
2.08000000e+02	1.12394046e+12
2.09000000e+02	1.13716918e+12
2.10000000e+02	1.15045370e+12
2.11000000e+02	1.16379273e+12
2.12000000e+02	1.17718498e+12
2.13000000e+02	1.19062914e+12
2.14000000e+02	1.20412388e+12
2.15000000e+02	1.21766786e+12
2.16000000e+02	1.23125974e+12
2.17000000e+02	1.24489815e+12
2.18000000e+02	1.25858171e+12
2.19000000e+02	1.27230903e+12
2.20000000e+02	1.28607873e+12
2.21000000e+02	1.29988939e+12
2.22000000e+02	1.31373959e+12
2.23000000e+02	1.32762792e+12
2.24000000e+02	1.34155292e+12
2.25000000e+02	1.35551317e+12
2.26000000e+02	1.36950720e+12
2.27000000e+02	1.38353356e+12
2.28000000e+02	1.39759079e+12
2.29000000e+02	1.41167740e+12
2.30000000e+02	1.42579193e+12
2.31000000e+02	1.43993289e+12
2.32000000e+02	1.45409878e+12
2.33000000e+02	1.46828813e+12
2.34000000e+02	1.48249943e+12
2.35000000e+02	1.49673118e+12
2.36000000e+02	1.51098189e+12
2.37000000e+02	1.52525005e+12
2.38000000e+02	1.53953416e+12
2.39000000e+02	1.55383270e+12
2.40000000e+02	1.56814418e+12
2.41000000e+02	1.58246709e+12
2.42000000e+02	1.59679992e+12
2.43000000e+02	1.61114117e+12
2.44000000e+02	1.62548934e+12
2.45000000e+02	1.63984293e+12
2.46000000e+02	1.65420044e+12
2.47000000e+02	1.66856038e+12
2.48000000e+02	1.68292126e+12
2.49000000e+02	1.69728160e+12
2.50000000e+02	1.71163991e+12
2.51000000e+02	1.72599474e+12
2.52000000e+02	1.74034459e+12
2.53000000e+02	1.75468803e+12
2.54000000e+02	1.76902360e+12
2.55000000e+02	1.78334984e+12
2.56000000e+02	1.79766534e+12
2.57000000e+02	1.81196865e+12
2.58000000e+02	1.82625836e+12
2.59000000e+02	1.84053307e+12
2.60000000e+02	1.85479138e+12
2.61000000e+02	1.86903190e+12
2.62000000e+02	1.88325326e+12
2.63000000e+02	1.89745411e+12
2.64000000e+02	1.91163309e+12
2.65000000e+02	1.92578886e+12
2.66000000e+02	1.93992012e+12
2.67000000e+02	1.95402554e+12
2.68000000e+02	1.96810385e+12
2.69000000e+02	1.98215377e+12
2.70000000e+02	1.99617403e+12
2.71000000e+02	2.01016339e+12
2.72000000e+02	2.02412064e+12
2.73000000e+02	2.03804455e+12
2.74000000e+02	2.05193394e+12
2.75000000e+02	2.06578764e+12
2.76000000e+02	2.07960450e+12
2.77000000e+02	2.09338337e+12
2.78000000e+02	2.10712316e+12
2.79000000e+02	2.12082275e+12
2.80000000e+02	2.13448109e+12
2.81000000e+02	2.14809712e+12
2.82000000e+02	2.16166982e+12
2.83000000e+02	2.17519816e+12
2.84000000e+02	2.18868118e+12
2.85000000e+02	2.20211790e+12
2.86000000e+02	2.21550739e+12
2.87000000e+02	2.22884874e+12
2.88000000e+02	2.24214105e+12
2.89000000e+02	2.25538345e+12
2.90000000e+02	2.26857511e+12
2.91000000e+02	2.28171521e+12
2.92000000e+02	2.29480295e+12
2.93000000e+02	2.30783757e+12
2.94000000e+02	2.32081834e+12
2.95000000e+02	2.33374453e+12
2.96000000e+02	2.34661547e+12
2.97000000e+02	2.35943048e+12
2.98000000e+02	2.37218894e+12
2.99000000e+02	2.38489025e+12
3.00000000e+02	2.39753382e+12
3.01000000e+02	2.41011910e+12
3.02000000e+02	2.42264557e+12
3.03000000e+02	2.43511273e+12
3.04000000e+02	2.44752012e+12
3.05000000e+02	2.45986729e+12
3.06000000e+02	2.47215384e+12
3.07000000e+02	2.48437937e+12
3.08000000e+02	2.49654354e+12
3.09000000e+02	2.50864601e+12
3.10000000e+02	2.52068649e+12
3.11000000e+02	2.53266470e+12
3.12000000e+02	2.54458039e+12
3.13000000e+02	2.55643336e+12
3.14000000e+02	2.56822340e+12
3.15000000e+02	2.57995036e+12
3.16000000e+02	2.59161409e+12
3.17000000e+02	2.60321450e+12
3.18000000e+02	2.61475148e+12
3.19000000e+02	2.62622499e+12
3.20000000e+02	2.63763499e+12
3.21000000e+02	2.64898147e+12
3.22000000e+02	2.66026445e+12
3.23000000e+02	2.67148396e+12
3.24000000e+02	2.68264007e+12
3.25000000e+02	2.69373285e+12
3.26000000e+02	2.70476243e+12
3.27000000e+02	2.71572892e+12
3.28000000e+02	2.72663246e+12
3.29000000e+02	2.73747324e+12
3.30000000e+02	2.74825142e+12
3.31000000e+02	2.75896721e+12
3.32000000e+02	2.76962083e+12
3.33000000e+02	2.78021252e+12
3.34000000e+02	2.79074251e+12
3.35000000e+02	2.80121108e+12
3.36000000e+02	2.81161849e+12
3.37000000e+02	2.82196503e+12
3.38000000e+02	2.83225098e+12
3.39000000e+02	2.84247666e+12
3.40000000e+02	2.85264236e+12
3.41000000e+02	2.86274840e+12
3.42000000e+02	2.87279510e+12
3.43000000e+02	2.88278277e+12
3.44000000e+02	2.89271174e+12
3.45000000e+02	2.90258231e+12
3.46000000e+02	2.91239481e+12
3.47000000e+02	2.92214955e+12
3.48000000e+02	2.93184682e+12
3.49000000e+02	2.94148692e+12
3.50000000e+02	2.95107015e+12
3.51000000e+02	2.96059677e+12
3.52000000e+02	2.97006704e+12
3.53000000e+02	2.97948121e+12
3.54000000e+02	2.98883950e+12
3.55000000e+02	2.99814213e+12
3.56000000e+02	3.00738927e+12
3.57000000e+02	3.01658109e+12
3.58000000e+02	3.02571772e+12
3.59000000e+02	3.03479928e+12
3.60000000e+02	3.04382583e+12
3.61000000e+02	3.05279743e+12
3.62000000e+02	3.06171408e+12
3.63000000e+02	3.07057576e+12
3.64000000e+02	3.07938241e+12
3.65000000e+02	3.08813392e+12
3.66000000e+02	3.09683015e+12
3.67000000e+02	3.10547090e+12
3.68000000e+02	3.11405594e+12
3.69000000e+02	3.12258498e+12
3.70000000e+02	3.13105768e+12
3.71000000e+02	3.13947365e+12
3.72000000e+02	3.14783245e+12
3.73000000e+02	3.15613356e+12
3.74000000e+02	3.16437644e+12
3.75000000e+02	3.17256046e+12
3.76000000e+02	3.18068494e+12
3.77000000e+02	3.18874912e+12
3.78000000e+02	3.19675219e+12
3.79000000e+02	3.20469328e+12
3.80000000e+02	3.21257144e+12
3.81000000e+02	3.22038563e+12
3.82000000e+02	3.22813477e+12
3.83000000e+02	3.23581769e+12
3.84000000e+02	3.24343316e+12
3.85000000e+02	3.25097984e+12
3.86000000e+02	3.25845636e+12
3.87000000e+02	3.26586123e+12
3.88000000e+02	3.27319290e+12
3.89000000e+02	3.28044975e+12
3.90000000e+02	3.28763005e+12
3.91000000e+02	3.29473202e+12
3.92000000e+02	3.30175376e+12
3.93000000e+02	3.30869333e+12
3.94000000e+02	3.31554867e+12
3.95000000e+02	3.32231766e+12
3.96000000e+02	3.32899809e+12
3.97000000e+02	3.33558765e+12
3.98000000e+02	3.34208396e+12
3.99000000e+02	3.34848456e+12
4.00000000e+02	3.35478690e+12
4.01000000e+02	3.36098833e+12
4.02000000e+02	3.36708615e+12
4.03000000e+02	3.37307754e+12
4.04000000e+02	3.37895962e+12
4.05000000e+02	3.38472943e+12
4.06000000e+02	3.39038392e+12
4.07000000e+02	3.39591995e+12
4.08000000e+02	3.40133432e+12
4.09000000e+02	3.40662375e+12
4.10000000e+02	3.41178487e+12
4.11000000e+02	3.41681424e+12
4.12000000e+02	3.42170836e+12
4.13000000e+02	3.42646364e+12
4.14000000e+02	3.43107643e+12
4.15000000e+02	3.43554301e+12
4.16000000e+02	3.43985960e+12
4.17000000e+02	3.44402234e+12
4.18000000e+02	3.44802733e+12
4.19000000e+02	3.45187060e+12
4.20000000e+02	3.45554812e+12
4.21000000e+02	3.45905581e+12
4.22000000e+02	3.46238956e+12
4.23000000e+02	3.46554519e+12
4.24000000e+02	3.46851848e+12
4.25000000e+02	3.47130517e+12
4.26000000e+02	3.47390099e+12
4.27000000e+02	3.47630159e+12
4.28000000e+02	3.47850263e+12
4.29000000e+02	3.48049974e+12
4.30000000e+02	3.48228852e+12
4.31000000e+02	3.48386455e+12
4.32000000e+02	3.48522341e+12
4.33000000e+02	3.48636067e+12
4.34000000e+02	3.48727189e+12
4.35000000e+02	3.48795266e+12
4.36000000e+02	3.48839854e+12
4.37000000e+02	3.48860514e+12
4.38000000e+02	3.48856804e+12
4.39000000e+02	3.48828291e+12
4.40000000e+02	3.48774538e+12
4.41000000e+02	3.48695117e+12
4.42000000e+02	3.48589600e+12
4.43000000e+02	3.48457567e+12
4.44000000e+02	3.48298600e+12
4.45000000e+02	3.48112290e+12
4.46000000e+02	3.47898230e+12
4.47000000e+02	3.47656025e+12
4.48000000e+02	3.47385284e+12
4.49000000e+02	3.47085625e+12
4.50000000e+02	3.46756675e+12
4.51000000e+02	3.46398071e+12
4.52000000e+02	3.46009459e+12
4.53000000e+02	3.45590496e+12
4.54000000e+02	3.45140849e+12
4.55000000e+02	3.44660199e+12
4.56000000e+02	3.44148239e+12
4.57000000e+02	3.43604672e+12
4.58000000e+02	3.43029220e+12
4.59000000e+02	3.42421614e+12
4.60000000e+02	3.41781602e+12
4.61000000e+02	3.41108949e+12
4.62000000e+02	3.40403434e+12
4.63000000e+02	3.39664854e+12
4.64000000e+02	3.38893020e+12
4.65000000e+02	3.38087766e+12
4.66000000e+02	3.37248940e+12
4.67000000e+02	3.36376411e+12
4.68000000e+02	3.35470068e+12
4.69000000e+02	3.34529818e+12
4.70000000e+02	3.33555591e+12
4.71000000e+02	3.32547337e+12
4.72000000e+02	3.31505028e+12
4.73000000e+02	3.30428659e+12
4.74000000e+02	3.29318248e+12
4.75000000e+02	3.28173835e+12
4.76000000e+02	3.26995486e+12
4.77000000e+02	3.25783291e+12
4.78000000e+02	3.24537365e+12
4.79000000e+02	3.23257849e+12
4.80000000e+02	3.21944911e+12
4.81000000e+02	3.20598744e+12
4.82000000e+02	3.19219571e+12
4.83000000e+02	3.17807642e+12
4.84000000e+02	3.16363234e+12
4.85000000e+02	3.14886656e+12
4.86000000e+02	3.13378244e+12
4.87000000e+02	3.11838365e+12
4.88000000e+02	3.10267418e+12
4.89000000e+02	3.08665830e+12
4.90000000e+02	3.07034062e+12
4.91000000e+02	3.05372606e+12
4.92000000e+02	3.03681985e+12
4.93000000e+02	3.01962756e+12
4.94000000e+02	3.00215508e+12
4.95000000e+02	2.98440861e+12
4.96000000e+02	2.96639472e+12
4.97000000e+02	2.94812027e+12
4.98000000e+02	2.92959246e+12
4.99000000e+02	2.91081882e+12
5.00000000e+02	2.89180720e+12
5.01000000e+02	2.87256576e+12
5.02000000e+02	2.85310299e+12
5.03000000e+02	2.83342767e+12
5.04000000e+02	2.81354890e+12
5.05000000e+02	2.79347604e+12
5.06000000e+02	2.77321876e+12
5.07000000e+02	2.75278696e+12
5.08000000e+02	2.73219083e+12
5.09000000e+02	2.71144077e+12
5.10000000e+02	2.69054740e+12
5.11000000e+02	2.66952154e+12
5.12000000e+02	2.64837418e+12
5.13000000e+02	2.62711649e+12
5.14000000e+02	2.60575975e+12
5.15000000e+02	2.58431535e+12
5.16000000e+02	2.56279475e+12
5.17000000e+02	2.54120947e+12
5.18000000e+02	2.51957106e+12
5.19000000e+02	2.49789105e+12
5.20000000e+02	2.47618093e+12
5.21000000e+02	2.45445212e+12
5.22000000e+02	2.43271596e+12
5.23000000e+02	2.41098363e+12
5.24000000e+02	2.38926617e+12
5.25000000e+02	2.36757440e+12
5.26000000e+02	2.34591894e+12
5.27000000e+02	2.32431014e+12
5.28000000e+02	2.30275809e+12
5.29000000e+02	2.28127256e+12
5.30000000e+02	2.25986297e+12
5.31000000e+02	2.23853840e+12
5.32000000e+02	2.21730757e+12
5.33000000e+02	2.19617877e+12
5.34000000e+02	2.17515988e+12
5.35000000e+02	2.15425838e+12
5.36000000e+02	2.13348126e+12
5.37000000e+02	2.11283510e+12
5.38000000e+02	2.09232599e+12
5.39000000e+02	2.07195955e+12
5.40000000e+02	2.05174097e+12
5.41000000e+02	2.03167491e+12
5.42000000e+02	2.01176559e+12
5.43000000e+02	1.99201677e+12
5.44000000e+02	1.97243173e+12
5.45000000e+02	1.95301329e+12
5.46000000e+02	1.93376384e+12
5.47000000e+02	1.91468532e+12
5.48000000e+02	1.89577926e+12
5.49000000e+02	1.87704674e+12
5.50000000e+02	1.85848850e+12
5.51000000e+02	1.84010484e+12
5.52000000e+02	1.82189572e+12
5.53000000e+02	1.80386075e+12
5.54000000e+02	1.78599920e+12
5.55000000e+02	1.76831002e+12
5.56000000e+02	1.75079185e+12
5.57000000e+02	1.73344308e+12
5.58000000e+02	1.71626180e+12
5.59000000e+02	1.69924587e+12
5.60000000e+02	1.68239292e+12
5.61000000e+02	1.66570035e+12
5.62000000e+02	1.64916537e+12
5.63000000e+02	1.63278502e+12
5.64000000e+02	1.61655617e+12
5.65000000e+02	1.60047551e+12
5.66000000e+02	1.58453964e+12
5.67000000e+02	1.56874498e+12
5.68000000e+02	1.55308790e+12
5.69000000e+02	1.53756462e+12
5.70000000e+02	1.52217131e+12
5.71000000e+02	1.50690405e+12
5.72000000e+02	1.49175884e+12
5.73000000e+02	1.47673167e+12
5.74000000e+02	1.46181844e+12
5.75000000e+02	1.44701504e+12
5.76000000e+02	1.43231734e+12
5.77000000e+02	1.41772117e+12
5.78000000e+02	1.40322237e+12
5.79000000e+02	1.38881677e+12
5.80000000e+02	1.37450020e+12
5.81000000e+02	1.36026853e+12
5.82000000e+02	1.34611761e+12
5.83000000e+02	1.33204335e+12
5.84000000e+02	1.31804167e+12
5.85000000e+02	1.30410855e+12
5.86000000e+02	1.29023999e+12
5.87000000e+02	1.27643208e+12
5.88000000e+02	1.26268093e+12
5.89000000e+02	1.24898273e+12
5.90000000e+02	1.23533376e+12
5.91000000e+02	1.22173034e+12
5.92000000e+02	1.20816890e+12
5.93000000e+02	1.19464596e+12
5.94000000e+02	1.18115815e+12
5.95000000e+02	1.16770216e+12
5.96000000e+02	1.15427484e+12
5.97000000e+02	1.14087313e+12
5.98000000e+02	1.12749410e+12
5.99000000e+02	1.11413496e+12
6.00000000e+02	1.10079307e+12
6.01000000e+02	1.08746590e+12
6.02000000e+02	1.07415109e+12
6.03000000e+02	1.06084647e+12
6.04000000e+02	1.04754999e+12
6.05000000e+02	1.03425982e+12
6.06000000e+02	1.02097426e+12
6.07000000e+02	1.00769183e+12
6.08000000e+02	9.94411233e+11
6.09000000e+02	9.81131384e+11
6.10000000e+02	9.67851381e+11
6.11000000e+02	9.54570540e+11
6.12000000e+02	9.41288398e+11
6.13000000e+02	9.28004692e+11
6.14000000e+02	9.14719349e+11
6.15000000e+02	9.01432563e+11
6.16000000e+02	8.88144778e+11
6.17000000e+02	8.74856597e+11
6.18000000e+02	8.61568860e+11
6.19000000e+02	8.48282718e+11
6.20000000e+02	8.34999400e+11
6.21000000e+02	8.21720340e+11
6.22000000e+02	8.08447494e+11
6.23000000e+02	7.95182688e+11
6.24000000e+02	7.81927966e+11
6.25000000e+02	7.68686138e+11
6.26000000e+02	7.55459003e+11
6.27000000e+02	7.42249669e+11
6.28000000e+02	7.29061117e+11
6.29000000e+02	7.15896557e+11
6.30000000e+02	7.02758714e+11
6.31000000e+02	6.89651539e+11
6.32000000e+02	6.76578299e+11
6.33000000e+02	6.63542378e+11
6.34000000e+02	6.50548137e+11
6.35000000e+02	6.37598544e+11
6.36000000e+02	6.24698400e+11
6.37000000e+02	6.11850794e+11
6.38000000e+02	5.99060429e+11
6.39000000e+02	5.86330828e+11
6.40000000e+02	5.73666281e+11
6.41000000e+02	5.61070749e+11
6.42000000e+02	5.48548113e+11
6.43000000e+02	5.36102579e+11
6.44000000e+02	5.23737690e+11
6.45000000e+02	5.11457691e+11
6.46000000e+02	4.99265801e+11
6.47000000e+02	4.87166218e+11
6.48000000e+02	4.75161875e+11
6.49000000e+02	4.63256700e+11
6.50000000e+02	4.51453367e+11
6.51000000e+02	4.39755463e+11
6.52000000e+02	4.28165338e+11
6.53000000e+02	4.16686189e+11
6.54000000e+02	4.05320045e+11
6.55000000e+02	3.94069657e+11
6.56000000e+02	3.82936668e+11
6.57000000e+02	3.71923336e+11
6.58000000e+02	3.61030892e+11
6.59000000e+02	3.50261062e+11
