# Profil de FluxX au temps 3.000000000000013e-12 
# simu : /Volumes/MERCURE/JOBS/Zeq2_tanh_50mic_7p5e19_B0_20ps/GNU/FluxX@y-c.set
# col 0 : abscisse (um)
# col 1 : FluxX (W/cm2)
0.00000000e+00	0.00000000e+00
1.00000000e+00	2.18844092e+05
2.00000000e+00	3.46521786e+05
3.00000000e+00	7.22108690e+05
4.00000000e+00	9.14555352e+05
5.00000000e+00	1.09413622e+06
6.00000000e+00	1.27019012e+06
7.00000000e+00	1.45002484e+06
8.00000000e+00	1.63241768e+06
9.00000000e+00	1.81438575e+06
1.00000000e+01	1.99717113e+06
1.10000000e+01	2.18312489e+06
1.20000000e+01	2.37330695e+06
1.30000000e+01	2.56785347e+06
1.40000000e+01	2.76674500e+06
1.50000000e+01	2.97007870e+06
1.60000000e+01	3.17806761e+06
1.70000000e+01	3.39099005e+06
1.80000000e+01	3.60915660e+06
1.90000000e+01	3.83289476e+06
2.00000000e+01	4.06254184e+06
2.10000000e+01	4.29843768e+06
2.20000000e+01	4.54092155e+06
2.30000000e+01	4.79033499e+06
2.40000000e+01	5.04702174e+06
2.50000000e+01	5.31133434e+06
2.60000000e+01	5.58364402e+06
2.70000000e+01	5.86434412e+06
2.80000000e+01	6.15386088e+06
2.90000000e+01	6.45265626e+06
3.00000000e+01	6.76123124e+06
3.10000000e+01	7.08012752e+06
3.20000000e+01	7.40992207e+06
3.30000000e+01	7.75122680e+06
3.40000000e+01	8.10467776e+06
3.50000000e+01	8.47092871e+06
3.60000000e+01	8.85064337e+06
3.70000000e+01	9.24448669e+06
3.80000000e+01	9.65312660e+06
3.90000000e+01	1.00772304e+07
4.00000000e+01	1.05174702e+07
4.10000000e+01	1.09745277e+07
4.20000000e+01	1.14491024e+07
4.30000000e+01	1.19419144e+07
4.40000000e+01	1.24537137e+07
4.50000000e+01	1.29852813e+07
4.60000000e+01	1.35374365e+07
4.70000000e+01	1.41110341e+07
4.80000000e+01	1.47069722e+07
4.90000000e+01	1.53261926e+07
5.00000000e+01	1.59696852e+07
5.10000000e+01	1.66384913e+07
5.20000000e+01	1.73337105e+07
5.30000000e+01	1.80565001e+07
5.40000000e+01	1.88080775e+07
5.50000000e+01	1.95897190e+07
5.60000000e+01	2.04027576e+07
5.70000000e+01	2.12485784e+07
5.80000000e+01	2.21286157e+07
5.90000000e+01	2.30443456e+07
6.00000000e+01	2.39972879e+07
6.10000000e+01	2.49890006e+07
6.20000000e+01	2.60210801e+07
6.30000000e+01	2.70951626e+07
6.40000000e+01	2.82129283e+07
6.50000000e+01	2.93761077e+07
6.60000000e+01	3.05864904e+07
6.70000000e+01	3.18459359e+07
6.80000000e+01	3.31563810e+07
6.90000000e+01	3.45198526e+07
7.00000000e+01	3.59384711e+07
7.10000000e+01	3.74144582e+07
7.20000000e+01	3.89501419e+07
7.30000000e+01	4.05479558e+07
7.40000000e+01	4.22104450e+07
7.50000000e+01	4.39402645e+07
7.60000000e+01	4.57401837e+07
7.70000000e+01	4.76130876e+07
7.80000000e+01	4.95619795e+07
7.90000000e+01	5.15899867e+07
8.00000000e+01	5.37003622e+07
8.10000000e+01	5.58964918e+07
8.20000000e+01	5.81818970e+07
8.30000000e+01	6.05602430e+07
8.40000000e+01	6.30353425e+07
8.50000000e+01	6.56111623e+07
8.60000000e+01	6.82918305e+07
8.70000000e+01	7.10816419e+07
8.80000000e+01	7.39850659e+07
8.90000000e+01	7.70067538e+07
9.00000000e+01	8.01515445e+07
9.10000000e+01	8.34244748e+07
9.20000000e+01	8.68307850e+07
9.30000000e+01	9.03759294e+07
9.40000000e+01	9.40655839e+07
9.50000000e+01	9.79056540e+07
9.60000000e+01	1.01902287e+08
9.70000000e+01	1.06061879e+08
9.80000000e+01	1.10391089e+08
9.90000000e+01	1.14896844e+08
1.00000000e+02	1.19586355e+08
1.01000000e+02	1.24467127e+08
1.02000000e+02	1.29546969e+08
1.03000000e+02	1.34834009e+08
1.04000000e+02	1.40336708e+08
1.05000000e+02	1.46063869e+08
1.06000000e+02	1.52024656e+08
1.07000000e+02	1.58228604e+08
1.08000000e+02	1.64685638e+08
1.09000000e+02	1.71406089e+08
1.10000000e+02	1.78400705e+08
1.11000000e+02	1.85680675e+08
1.12000000e+02	1.93257642e+08
1.13000000e+02	2.01143726e+08
1.14000000e+02	2.09351537e+08
1.15000000e+02	2.17894202e+08
1.16000000e+02	2.26785381e+08
1.17000000e+02	2.36039290e+08
1.18000000e+02	2.45670726e+08
1.19000000e+02	2.55695087e+08
1.20000000e+02	2.66128400e+08
1.21000000e+02	2.76987344e+08
1.22000000e+02	2.88289276e+08
1.23000000e+02	3.00052264e+08
1.24000000e+02	3.12295109e+08
1.25000000e+02	3.25037378e+08
1.26000000e+02	3.38299436e+08
1.27000000e+02	3.52102478e+08
1.28000000e+02	3.66468561e+08
1.29000000e+02	3.81420642e+08
1.30000000e+02	3.96982611e+08
1.31000000e+02	4.13179333e+08
1.32000000e+02	4.30036683e+08
1.33000000e+02	4.47581593e+08
1.34000000e+02	4.65842088e+08
1.35000000e+02	4.84847337e+08
1.36000000e+02	5.04627694e+08
1.37000000e+02	5.25214750e+08
1.38000000e+02	5.46641380e+08
1.39000000e+02	5.68941800e+08
1.40000000e+02	5.92151614e+08
1.41000000e+02	6.16307879e+08
1.42000000e+02	6.41449154e+08
1.43000000e+02	6.67615573e+08
1.44000000e+02	6.94848896e+08
1.45000000e+02	7.23192585e+08
1.46000000e+02	7.52691868e+08
1.47000000e+02	7.83393813e+08
1.48000000e+02	8.15347396e+08
1.49000000e+02	8.48603589e+08
1.50000000e+02	8.83215432e+08
1.51000000e+02	9.19238122e+08
1.52000000e+02	9.56729094e+08
1.53000000e+02	9.95748120e+08
1.54000000e+02	1.03635739e+09
1.55000000e+02	1.07862164e+09
1.56000000e+02	1.12260820e+09
1.57000000e+02	1.16838716e+09
1.58000000e+02	1.21603144e+09
1.59000000e+02	1.26561692e+09
1.60000000e+02	1.31722256e+09
1.61000000e+02	1.37093051e+09
1.62000000e+02	1.42682625e+09
1.63000000e+02	1.48499875e+09
1.64000000e+02	1.54554054e+09
1.65000000e+02	1.60854792e+09
1.66000000e+02	1.67412110e+09
1.67000000e+02	1.74236431e+09
1.68000000e+02	1.81338603e+09
1.69000000e+02	1.88729909e+09
1.70000000e+02	1.96422092e+09
1.71000000e+02	2.04427366e+09
1.72000000e+02	2.12758441e+09
1.73000000e+02	2.21428536e+09
1.74000000e+02	2.30451408e+09
1.75000000e+02	2.39841366e+09
1.76000000e+02	2.49613296e+09
1.77000000e+02	2.59782684e+09
1.78000000e+02	2.70365640e+09
1.79000000e+02	2.81378922e+09
1.80000000e+02	2.92839962e+09
1.81000000e+02	3.04766891e+09
1.82000000e+02	3.17178572e+09
1.83000000e+02	3.30094623e+09
1.84000000e+02	3.43535448e+09
1.85000000e+02	3.57522271e+09
1.86000000e+02	3.72077165e+09
1.87000000e+02	3.87223089e+09
1.88000000e+02	4.02983917e+09
1.89000000e+02	4.19384480e+09
1.90000000e+02	4.36450599e+09
1.91000000e+02	4.54209127e+09
1.92000000e+02	4.72687985e+09
1.93000000e+02	4.91916208e+09
1.94000000e+02	5.11923986e+09
1.95000000e+02	5.32742708e+09
1.96000000e+02	5.54405012e+09
1.97000000e+02	5.76944827e+09
1.98000000e+02	6.00397429e+09
1.99000000e+02	6.24799488e+09
2.00000000e+02	6.50189125e+09
2.01000000e+02	6.76605964e+09
2.02000000e+02	7.04091193e+09
2.03000000e+02	7.32687618e+09
2.04000000e+02	7.62439732e+09
2.05000000e+02	7.93393771e+09
2.06000000e+02	8.25597784e+09
2.07000000e+02	8.59101700e+09
2.08000000e+02	8.93957399e+09
2.09000000e+02	9.30218783e+09
2.10000000e+02	9.67941852e+09
2.11000000e+02	1.00718478e+10
2.12000000e+02	1.04800800e+10
2.13000000e+02	1.09047428e+10
2.14000000e+02	1.13464882e+10
2.15000000e+02	1.18059932e+10
2.16000000e+02	1.22839609e+10
2.17000000e+02	1.27811213e+10
2.18000000e+02	1.32982324e+10
2.19000000e+02	1.38360812e+10
2.20000000e+02	1.43954844e+10
2.21000000e+02	1.49772899e+10
2.22000000e+02	1.55823778e+10
2.23000000e+02	1.62116611e+10
2.24000000e+02	1.68660874e+10
2.25000000e+02	1.75466397e+10
2.26000000e+02	1.82543379e+10
2.27000000e+02	1.89902398e+10
2.28000000e+02	1.97554424e+10
2.29000000e+02	2.05510834e+10
2.30000000e+02	2.13783423e+10
2.31000000e+02	2.22384422e+10
2.32000000e+02	2.31326505e+10
2.33000000e+02	2.40622809e+10
2.34000000e+02	2.50286949e+10
2.35000000e+02	2.60333029e+10
2.36000000e+02	2.70775659e+10
2.37000000e+02	2.81629972e+10
2.38000000e+02	2.92911640e+10
2.39000000e+02	3.04636889e+10
2.40000000e+02	3.16822513e+10
2.41000000e+02	3.29485896e+10
2.42000000e+02	3.42645027e+10
2.43000000e+02	3.56318515e+10
2.44000000e+02	3.70525609e+10
2.45000000e+02	3.85286213e+10
2.46000000e+02	4.00620909e+10
2.47000000e+02	4.16550969e+10
2.48000000e+02	4.33098377e+10
2.49000000e+02	4.50285845e+10
2.50000000e+02	4.68136833e+10
2.51000000e+02	4.86675567e+10
2.52000000e+02	5.05927056e+10
2.53000000e+02	5.25917113e+10
2.54000000e+02	5.46672371e+10
2.55000000e+02	5.68220301e+10
2.56000000e+02	5.90589232e+10
2.57000000e+02	6.13808369e+10
2.58000000e+02	6.37907807e+10
2.59000000e+02	6.62918552e+10
2.60000000e+02	6.88872539e+10
2.61000000e+02	7.15802642e+10
2.62000000e+02	7.43742698e+10
2.63000000e+02	7.72727517e+10
2.64000000e+02	8.02792902e+10
2.65000000e+02	8.33975656e+10
2.66000000e+02	8.66313602e+10
2.67000000e+02	8.99845594e+10
2.68000000e+02	9.34611528e+10
2.69000000e+02	9.70652352e+10
2.70000000e+02	1.00801008e+11
2.71000000e+02	1.04672778e+11
2.72000000e+02	1.08684964e+11
2.73000000e+02	1.12842088e+11
2.74000000e+02	1.17148785e+11
2.75000000e+02	1.21609796e+11
2.76000000e+02	1.26229974e+11
2.77000000e+02	1.31014280e+11
2.78000000e+02	1.35967784e+11
2.79000000e+02	1.41095663e+11
2.80000000e+02	1.46403206e+11
2.81000000e+02	1.51895804e+11
2.82000000e+02	1.57578957e+11
2.83000000e+02	1.63458269e+11
2.84000000e+02	1.69539447e+11
2.85000000e+02	1.75828298e+11
2.86000000e+02	1.82330728e+11
2.87000000e+02	1.89052742e+11
2.88000000e+02	1.96000436e+11
2.89000000e+02	2.03179997e+11
2.90000000e+02	2.10597700e+11
2.91000000e+02	2.18259905e+11
2.92000000e+02	2.26173048e+11
2.93000000e+02	2.34343645e+11
2.94000000e+02	2.42778279e+11
2.95000000e+02	2.51483601e+11
2.96000000e+02	2.60466320e+11
2.97000000e+02	2.69733201e+11
2.98000000e+02	2.79291057e+11
2.99000000e+02	2.89146741e+11
3.00000000e+02	2.99307144e+11
3.01000000e+02	3.09779180e+11
3.02000000e+02	3.20569788e+11
3.03000000e+02	3.31685914e+11
3.04000000e+02	3.43134509e+11
3.05000000e+02	3.54922519e+11
3.06000000e+02	3.67056873e+11
3.07000000e+02	3.79544478e+11
3.08000000e+02	3.92392205e+11
3.09000000e+02	4.05606879e+11
3.10000000e+02	4.19195270e+11
3.11000000e+02	4.33164084e+11
3.12000000e+02	4.47519944e+11
3.13000000e+02	4.62269387e+11
3.14000000e+02	4.77418846e+11
3.15000000e+02	4.92974641e+11
3.16000000e+02	5.08942963e+11
3.17000000e+02	5.25329866e+11
3.18000000e+02	5.42141248e+11
3.19000000e+02	5.59382843e+11
3.20000000e+02	5.77060204e+11
3.21000000e+02	5.95178691e+11
3.22000000e+02	6.13743456e+11
3.23000000e+02	6.32759428e+11
3.24000000e+02	6.52231302e+11
3.25000000e+02	6.72163524e+11
3.26000000e+02	6.92560272e+11
3.27000000e+02	7.13425448e+11
3.28000000e+02	7.34762661e+11
3.29000000e+02	7.56575211e+11
3.30000000e+02	7.78866080e+11
3.31000000e+02	8.01637911e+11
3.32000000e+02	8.24892998e+11
3.33000000e+02	8.48633275e+11
3.34000000e+02	8.72860295e+11
3.35000000e+02	8.97575224e+11
3.36000000e+02	9.22778822e+11
3.37000000e+02	9.48471435e+11
3.38000000e+02	9.74652979e+11
3.39000000e+02	1.00132293e+12
3.40000000e+02	1.02848031e+12
3.41000000e+02	1.05612369e+12
3.42000000e+02	1.08425114e+12
3.43000000e+02	1.11286026e+12
3.44000000e+02	1.14194817e+12
3.45000000e+02	1.17151147e+12
3.46000000e+02	1.20154624e+12
3.47000000e+02	1.23204805e+12
3.48000000e+02	1.26301195e+12
3.49000000e+02	1.29443243e+12
3.50000000e+02	1.32630347e+12
3.51000000e+02	1.35861848e+12
3.52000000e+02	1.39137032e+12
3.53000000e+02	1.42455131e+12
3.54000000e+02	1.45815319e+12
3.55000000e+02	1.49216716e+12
3.56000000e+02	1.52658384e+12
3.57000000e+02	1.56139329e+12
3.58000000e+02	1.59658501e+12
3.59000000e+02	1.63214793e+12
3.60000000e+02	1.66807042e+12
3.61000000e+02	1.70434028e+12
3.62000000e+02	1.74094477e+12
3.63000000e+02	1.77787057e+12
3.64000000e+02	1.81510384e+12
3.65000000e+02	1.85263017e+12
3.66000000e+02	1.89043461e+12
3.67000000e+02	1.92850170e+12
3.68000000e+02	1.96681544e+12
3.69000000e+02	2.00535930e+12
3.70000000e+02	2.04411627e+12
3.71000000e+02	2.08306881e+12
3.72000000e+02	2.12219892e+12
3.73000000e+02	2.16148809e+12
3.74000000e+02	2.20091738e+12
3.75000000e+02	2.24046737e+12
3.76000000e+02	2.28011821e+12
3.77000000e+02	2.31984960e+12
3.78000000e+02	2.35964085e+12
3.79000000e+02	2.39947086e+12
3.80000000e+02	2.43931814e+12
3.81000000e+02	2.47916085e+12
3.82000000e+02	2.51897676e+12
3.83000000e+02	2.55874333e+12
3.84000000e+02	2.59843768e+12
3.85000000e+02	2.63803663e+12
3.86000000e+02	2.67751673e+12
3.87000000e+02	2.71685424e+12
3.88000000e+02	2.75602516e+12
3.89000000e+02	2.79500527e+12
3.90000000e+02	2.83377013e+12
3.91000000e+02	2.87229511e+12
3.92000000e+02	2.91055539e+12
3.93000000e+02	2.94852599e+12
3.94000000e+02	2.98618179e+12
3.95000000e+02	3.02349755e+12
3.96000000e+02	3.06044792e+12
3.97000000e+02	3.09700749e+12
3.98000000e+02	3.13315074e+12
3.99000000e+02	3.16885216e+12
4.00000000e+02	3.20408616e+12
4.01000000e+02	3.23882718e+12
4.02000000e+02	3.27304965e+12
4.03000000e+02	3.30672804e+12
4.04000000e+02	3.33983688e+12
4.05000000e+02	3.37235074e+12
4.06000000e+02	3.40424429e+12
4.07000000e+02	3.43549231e+12
4.08000000e+02	3.46606970e+12
4.09000000e+02	3.49595150e+12
4.10000000e+02	3.52511290e+12
4.11000000e+02	3.55352927e+12
4.12000000e+02	3.58117617e+12
4.13000000e+02	3.60802938e+12
4.14000000e+02	3.63406490e+12
4.15000000e+02	3.65925896e+12
4.16000000e+02	3.68358806e+12
4.17000000e+02	3.70702898e+12
4.18000000e+02	3.72955877e+12
4.19000000e+02	3.75115479e+12
4.20000000e+02	3.77179473e+12
4.21000000e+02	3.79145660e+12
4.22000000e+02	3.81011877e+12
4.23000000e+02	3.82775996e+12
4.24000000e+02	3.84435928e+12
4.25000000e+02	3.85989621e+12
4.26000000e+02	3.87435064e+12
4.27000000e+02	3.88770289e+12
4.28000000e+02	3.89993370e+12
4.29000000e+02	3.91102426e+12
4.30000000e+02	3.92095621e+12
4.31000000e+02	3.92971167e+12
4.32000000e+02	3.93727324e+12
4.33000000e+02	3.94362403e+12
4.34000000e+02	3.94874766e+12
4.35000000e+02	3.95262829e+12
4.36000000e+02	3.95525062e+12
4.37000000e+02	3.95659992e+12
4.38000000e+02	3.95666206e+12
4.39000000e+02	3.95542349e+12
4.40000000e+02	3.95287131e+12
4.41000000e+02	3.94899323e+12
4.42000000e+02	3.94377767e+12
4.43000000e+02	3.93721372e+12
4.44000000e+02	3.92929120e+12
4.45000000e+02	3.92000068e+12
4.46000000e+02	3.90933351e+12
4.47000000e+02	3.89728184e+12
4.48000000e+02	3.88383869e+12
4.49000000e+02	3.86899793e+12
4.50000000e+02	3.85275438e+12
4.51000000e+02	3.83510382e+12
4.52000000e+02	3.81604302e+12
4.53000000e+02	3.79556983e+12
4.54000000e+02	3.77368317e+12
4.55000000e+02	3.75038315e+12
4.56000000e+02	3.72567107e+12
4.57000000e+02	3.69954947e+12
4.58000000e+02	3.67202226e+12
4.59000000e+02	3.64309470e+12
4.60000000e+02	3.61277349e+12
4.61000000e+02	3.58106684e+12
4.62000000e+02	3.54798455e+12
4.63000000e+02	3.51353804e+12
4.64000000e+02	3.47774042e+12
4.65000000e+02	3.44060659e+12
4.66000000e+02	3.40215327e+12
4.67000000e+02	3.36239907e+12
4.68000000e+02	3.32136456e+12
4.69000000e+02	3.27907234e+12
4.70000000e+02	3.23554708e+12
4.71000000e+02	3.19081555e+12
4.72000000e+02	3.14490673e+12
4.73000000e+02	3.09785179e+12
4.74000000e+02	3.04968419e+12
4.75000000e+02	3.00043963e+12
4.76000000e+02	2.95015615e+12
4.77000000e+02	2.89887410e+12
4.78000000e+02	2.84663616e+12
4.79000000e+02	2.79348733e+12
4.80000000e+02	2.73947494e+12
4.81000000e+02	2.68464858e+12
4.82000000e+02	2.62906010e+12
4.83000000e+02	2.57276358e+12
4.84000000e+02	2.51581522e+12
4.85000000e+02	2.45827332e+12
4.86000000e+02	2.40019818e+12
4.87000000e+02	2.34165200e+12
4.88000000e+02	2.28269881e+12
4.89000000e+02	2.22340434e+12
4.90000000e+02	2.16383588e+12
4.91000000e+02	2.10406217e+12
4.92000000e+02	2.04415325e+12
4.93000000e+02	1.98418032e+12
4.94000000e+02	1.92421553e+12
4.95000000e+02	1.86433186e+12
4.96000000e+02	1.80460291e+12
4.97000000e+02	1.74510273e+12
4.98000000e+02	1.68590558e+12
4.99000000e+02	1.62708576e+12
5.00000000e+02	1.56871735e+12
5.01000000e+02	1.51087401e+12
5.02000000e+02	1.45362875e+12
5.03000000e+02	1.39705364e+12
5.04000000e+02	1.34121957e+12
5.05000000e+02	1.28619599e+12
5.06000000e+02	1.23205065e+12
5.07000000e+02	1.17884925e+12
5.08000000e+02	1.12665524e+12
5.09000000e+02	1.07552945e+12
5.10000000e+02	1.02552983e+12
5.11000000e+02	9.76711144e+11
5.12000000e+02	9.29124657e+11
5.13000000e+02	8.82817867e+11
5.14000000e+02	8.37834210e+11
5.15000000e+02	7.94212785e+11
5.16000000e+02	7.51988112e+11
5.17000000e+02	7.11189891e+11
5.18000000e+02	6.71842808e+11
5.19000000e+02	6.33966352e+11
5.20000000e+02	5.97574690e+11
5.21000000e+02	5.62676564e+11
5.22000000e+02	5.29275242e+11
5.23000000e+02	4.97368524e+11
5.24000000e+02	4.66948777e+11
5.25000000e+02	4.38003047e+11
5.26000000e+02	4.10513211e+11
5.27000000e+02	3.84456184e+11
5.28000000e+02	3.59804177e+11
5.29000000e+02	3.36525007e+11
5.30000000e+02	3.14582443e+11
5.31000000e+02	2.93936599e+11
5.32000000e+02	2.74544356e+11
5.33000000e+02	2.56359808e+11
5.34000000e+02	2.39334729e+11
5.35000000e+02	2.23419048e+11
5.36000000e+02	2.08561328e+11
5.37000000e+02	1.94709234e+11
5.38000000e+02	1.81809990e+11
5.39000000e+02	1.69810814e+11
5.40000000e+02	1.58659325e+11
5.41000000e+02	1.48303918e+11
5.42000000e+02	1.38694100e+11
5.43000000e+02	1.29780785e+11
5.44000000e+02	1.21516550e+11
5.45000000e+02	1.13855843e+11
5.46000000e+02	1.06755149e+11
5.47000000e+02	1.00173118e+11
5.48000000e+02	9.40706488e+10
5.49000000e+02	8.84109365e+10
5.50000000e+02	8.31594885e+10
5.51000000e+02	7.82841085e+10
5.52000000e+02	7.37548558e+10
5.53000000e+02	6.95439826e+10
5.54000000e+02	6.56258528e+10
5.55000000e+02	6.19768482e+10
5.56000000e+02	5.85752630e+10
5.57000000e+02	5.54011923e+10
5.58000000e+02	5.24364165e+10
5.59000000e+02	4.96642835e+10
5.60000000e+02	4.70695928e+10
5.61000000e+02	4.46384808e+10
5.62000000e+02	4.23583113e+10
5.63000000e+02	4.02175702e+10
5.64000000e+02	3.82057665e+10
5.65000000e+02	3.63133389e+10
5.66000000e+02	3.45315701e+10
5.67000000e+02	3.28525067e+10
5.68000000e+02	3.12688861e+10
5.69000000e+02	2.97740703e+10
5.70000000e+02	2.83619848e+10
5.71000000e+02	2.70270642e+10
5.72000000e+02	2.57642026e+10
5.73000000e+02	2.45687091e+10
5.74000000e+02	2.34362682e+10
5.75000000e+02	2.23629036e+10
5.76000000e+02	2.13449466e+10
5.77000000e+02	2.03790075e+10
5.78000000e+02	1.94619496e+10
5.79000000e+02	1.85908665e+10
5.80000000e+02	1.77630616e+10
5.81000000e+02	1.69760298e+10
5.82000000e+02	1.62274407e+10
5.83000000e+02	1.55151242e+10
5.84000000e+02	1.48370569e+10
5.85000000e+02	1.41913501e+10
5.86000000e+02	1.35762392e+10
5.87000000e+02	1.29900734e+10
5.88000000e+02	1.24313075e+10
5.89000000e+02	1.18984935e+10
5.90000000e+02	1.13902730e+10
5.91000000e+02	1.09053712e+10
5.92000000e+02	1.04425903e+10
5.93000000e+02	1.00008039e+10
5.94000000e+02	9.57895260e+09
5.95000000e+02	9.17603852e+09
5.96000000e+02	8.79112152e+09
5.97000000e+02	8.42331517e+09
5.98000000e+02	8.07178310e+09
5.99000000e+02	7.73573571e+09
6.00000000e+02	7.41442712e+09
6.01000000e+02	7.10715231e+09
6.02000000e+02	6.81324450e+09
6.03000000e+02	6.53207278e+09
6.04000000e+02	6.26303980e+09
6.05000000e+02	6.00557976e+09
6.06000000e+02	5.75915645e+09
6.07000000e+02	5.52326144e+09
6.08000000e+02	5.29741246e+09
6.09000000e+02	5.08115182e+09
6.10000000e+02	4.87404499e+09
6.11000000e+02	4.67567922e+09
6.12000000e+02	4.48566234e+09
6.13000000e+02	4.30362156e+09
6.14000000e+02	4.12920236e+09
6.15000000e+02	3.96206751e+09
6.16000000e+02	3.80189609e+09
6.17000000e+02	3.64838259e+09
6.18000000e+02	3.50123611e+09
6.19000000e+02	3.36017952e+09
6.20000000e+02	3.22494876e+09
6.21000000e+02	3.09529216e+09
6.22000000e+02	2.97096975e+09
6.23000000e+02	2.85175269e+09
6.24000000e+02	2.73742266e+09
6.25000000e+02	2.62777136e+09
6.26000000e+02	2.52259996e+09
6.27000000e+02	2.42171867e+09
6.28000000e+02	2.32494623e+09
6.29000000e+02	2.23210953e+09
6.30000000e+02	2.14304322e+09
6.31000000e+02	2.05758926e+09
6.32000000e+02	1.97559664e+09
6.33000000e+02	1.89692101e+09
6.34000000e+02	1.82142432e+09
6.35000000e+02	1.74897462e+09
6.36000000e+02	1.67944565e+09
6.37000000e+02	1.61271667e+09
6.38000000e+02	1.54867215e+09
6.39000000e+02	1.48720153e+09
6.40000000e+02	1.42819899e+09
6.41000000e+02	1.37156326e+09
6.42000000e+02	1.31719735e+09
6.43000000e+02	1.26500842e+09
6.44000000e+02	1.21490752e+09
6.45000000e+02	1.16680945e+09
6.46000000e+02	1.12063253e+09
6.47000000e+02	1.07629847e+09
6.48000000e+02	1.03373217e+09
6.49000000e+02	9.92861527e+08
6.50000000e+02	9.53617249e+08
6.51000000e+02	9.15932668e+08
6.52000000e+02	8.79743524e+08
6.53000000e+02	8.44987741e+08
6.54000000e+02	8.11605188e+08
6.55000000e+02	7.79537431e+08
6.56000000e+02	7.48727467e+08
6.57000000e+02	7.19119473e+08
6.58000000e+02	6.90658552e+08
6.59000000e+02	6.63290534e+08
