# Profil de FluxX au temps 5.000000000000045e-12 
# simu : /Volumes/MERCURE/JOBS/Zeq2_tanh_50mic_7p5e19_B0_20ps/GNU/FluxX@y-c.set
# col 0 : abscisse (um)
# col 1 : FluxX (W/cm2)
0.00000000e+00	0.00000000e+00
1.00000000e+00	1.65849726e+06
2.00000000e+00	3.22577465e+06
3.00000000e+00	5.04584329e+06
4.00000000e+00	6.69313803e+06
5.00000000e+00	8.33835323e+06
6.00000000e+00	9.99314187e+06
7.00000000e+00	1.16626689e+07
8.00000000e+00	1.33503055e+07
9.00000000e+00	1.50588819e+07
1.00000000e+01	1.67911523e+07
1.10000000e+01	1.85498957e+07
1.20000000e+01	2.03379351e+07
1.30000000e+01	2.21581414e+07
1.40000000e+01	2.40134349e+07
1.50000000e+01	2.59067955e+07
1.60000000e+01	2.78412632e+07
1.70000000e+01	2.98199462e+07
1.80000000e+01	3.18460235e+07
1.90000000e+01	3.39227492e+07
2.00000000e+01	3.60534497e+07
2.10000000e+01	3.82415260e+07
2.20000000e+01	4.04904566e+07
2.30000000e+01	4.28038077e+07
2.40000000e+01	4.51852444e+07
2.50000000e+01	4.76385449e+07
2.60000000e+01	5.01676121e+07
2.70000000e+01	5.27764789e+07
2.80000000e+01	5.54693172e+07
2.90000000e+01	5.82504450e+07
3.00000000e+01	6.11243357e+07
3.10000000e+01	6.40956260e+07
3.20000000e+01	6.71691198e+07
3.30000000e+01	7.03497891e+07
3.40000000e+01	7.36427722e+07
3.50000000e+01	7.70533795e+07
3.60000000e+01	8.05870915e+07
3.70000000e+01	8.42495717e+07
3.80000000e+01	8.80466756e+07
3.90000000e+01	9.19844630e+07
4.00000000e+01	9.60692133e+07
4.10000000e+01	1.00307437e+08
4.20000000e+01	1.04705890e+08
4.30000000e+01	1.09271583e+08
4.40000000e+01	1.14011797e+08
4.50000000e+01	1.18934089e+08
4.60000000e+01	1.24046311e+08
4.70000000e+01	1.29356621e+08
4.80000000e+01	1.34873491e+08
4.90000000e+01	1.40605727e+08
5.00000000e+01	1.46562479e+08
5.10000000e+01	1.52753255e+08
5.20000000e+01	1.59187942e+08
5.30000000e+01	1.65876814e+08
5.40000000e+01	1.72830552e+08
5.50000000e+01	1.80060261e+08
5.60000000e+01	1.87577486e+08
5.70000000e+01	1.95394231e+08
5.80000000e+01	2.03522976e+08
5.90000000e+01	2.11976695e+08
6.00000000e+01	2.20768883e+08
6.10000000e+01	2.29913567e+08
6.20000000e+01	2.39425336e+08
6.30000000e+01	2.49319358e+08
6.40000000e+01	2.59611407e+08
6.50000000e+01	2.70317888e+08
6.60000000e+01	2.81455858e+08
6.70000000e+01	2.93043062e+08
6.80000000e+01	3.05097951e+08
6.90000000e+01	3.17639718e+08
7.00000000e+01	3.30688325e+08
7.10000000e+01	3.44264536e+08
7.20000000e+01	3.58389949e+08
7.30000000e+01	3.73087029e+08
7.40000000e+01	3.88379149e+08
7.50000000e+01	4.04290617e+08
7.60000000e+01	4.20846721e+08
7.70000000e+01	4.38073769e+08
7.80000000e+01	4.55999127e+08
7.90000000e+01	4.74651259e+08
8.00000000e+01	4.94059782e+08
8.10000000e+01	5.14255499e+08
8.20000000e+01	5.35270456e+08
8.30000000e+01	5.57137986e+08
8.40000000e+01	5.79892768e+08
8.50000000e+01	6.03570870e+08
8.60000000e+01	6.28209816e+08
8.70000000e+01	6.53848635e+08
8.80000000e+01	6.80527929e+08
8.90000000e+01	7.08289928e+08
9.00000000e+01	7.37178561e+08
9.10000000e+01	7.67239519e+08
9.20000000e+01	7.98520329e+08
9.30000000e+01	8.31070419e+08
9.40000000e+01	8.64941204e+08
9.50000000e+01	9.00186151e+08
9.60000000e+01	9.36860870e+08
9.70000000e+01	9.75023188e+08
9.80000000e+01	1.01473324e+09
9.90000000e+01	1.05605356e+09
1.00000000e+02	1.09904917e+09
1.01000000e+02	1.14378768e+09
1.02000000e+02	1.19033938e+09
1.03000000e+02	1.23877736e+09
1.04000000e+02	1.28917759e+09
1.05000000e+02	1.34161908e+09
1.06000000e+02	1.39618394e+09
1.07000000e+02	1.45295755e+09
1.08000000e+02	1.51202866e+09
1.09000000e+02	1.57348951e+09
1.10000000e+02	1.63743602e+09
1.11000000e+02	1.70396786e+09
1.12000000e+02	1.77318863e+09
1.13000000e+02	1.84520604e+09
1.14000000e+02	1.92013199e+09
1.15000000e+02	1.99808279e+09
1.16000000e+02	2.07917933e+09
1.17000000e+02	2.16354719e+09
1.18000000e+02	2.25131690e+09
1.19000000e+02	2.34262404e+09
1.20000000e+02	2.43760949e+09
1.21000000e+02	2.53641961e+09
1.22000000e+02	2.63920642e+09
1.23000000e+02	2.74612785e+09
1.24000000e+02	2.85734790e+09
1.25000000e+02	2.97303691e+09
1.26000000e+02	3.09337179e+09
1.27000000e+02	3.21853622e+09
1.28000000e+02	3.34872093e+09
1.29000000e+02	3.48412394e+09
1.30000000e+02	3.62495082e+09
1.31000000e+02	3.77141495e+09
1.32000000e+02	3.92373784e+09
1.33000000e+02	4.08214936e+09
1.34000000e+02	4.24688807e+09
1.35000000e+02	4.41820151e+09
1.36000000e+02	4.59634653e+09
1.37000000e+02	4.78158958e+09
1.38000000e+02	4.97420707e+09
1.39000000e+02	5.17448570e+09
1.40000000e+02	5.38272280e+09
1.41000000e+02	5.59922672e+09
1.42000000e+02	5.82431716e+09
1.43000000e+02	6.05832559e+09
1.44000000e+02	6.30159559e+09
1.45000000e+02	6.55448331e+09
1.46000000e+02	6.81735782e+09
1.47000000e+02	7.09060159e+09
1.48000000e+02	7.37461088e+09
1.49000000e+02	7.66979618e+09
1.50000000e+02	7.97658269e+09
1.51000000e+02	8.29541077e+09
1.52000000e+02	8.62673642e+09
1.53000000e+02	8.97103173e+09
1.54000000e+02	9.32878544e+09
1.55000000e+02	9.70050338e+09
1.56000000e+02	1.00867090e+10
1.57000000e+02	1.04879441e+10
1.58000000e+02	1.09047688e+10
1.59000000e+02	1.13377628e+10
1.60000000e+02	1.17875256e+10
1.61000000e+02	1.22546769e+10
1.62000000e+02	1.27398575e+10
1.63000000e+02	1.32437296e+10
1.64000000e+02	1.37669777e+10
1.65000000e+02	1.43103091e+10
1.66000000e+02	1.48744543e+10
1.67000000e+02	1.54601678e+10
1.68000000e+02	1.60682290e+10
1.69000000e+02	1.66994422e+10
1.70000000e+02	1.73546379e+10
1.71000000e+02	1.80346731e+10
1.72000000e+02	1.87404320e+10
1.73000000e+02	1.94728267e+10
1.74000000e+02	2.02327980e+10
1.75000000e+02	2.10213159e+10
1.76000000e+02	2.18393803e+10
1.77000000e+02	2.26880218e+10
1.78000000e+02	2.35683022e+10
1.79000000e+02	2.44813154e+10
1.80000000e+02	2.54281881e+10
1.81000000e+02	2.64100801e+10
1.82000000e+02	2.74281854e+10
1.83000000e+02	2.84837328e+10
1.84000000e+02	2.95779864e+10
1.85000000e+02	3.07122465e+10
1.86000000e+02	3.18878501e+10
1.87000000e+02	3.31061715e+10
1.88000000e+02	3.43686232e+10
1.89000000e+02	3.56766564e+10
1.90000000e+02	3.70317614e+10
1.91000000e+02	3.84354686e+10
1.92000000e+02	3.98893488e+10
1.93000000e+02	4.13950139e+10
1.94000000e+02	4.29541175e+10
1.95000000e+02	4.45683553e+10
1.96000000e+02	4.62394655e+10
1.97000000e+02	4.79692297e+10
1.98000000e+02	4.97594729e+10
1.99000000e+02	5.16120642e+10
2.00000000e+02	5.35289172e+10
2.01000000e+02	5.55119901e+10
2.02000000e+02	5.75632863e+10
2.03000000e+02	5.96848545e+10
2.04000000e+02	6.18787891e+10
2.05000000e+02	6.41472304e+10
2.06000000e+02	6.64923646e+10
2.07000000e+02	6.89164240e+10
2.08000000e+02	7.14216871e+10
2.09000000e+02	7.40104786e+10
2.10000000e+02	7.66851695e+10
2.11000000e+02	7.94481765e+10
2.12000000e+02	8.23019626e+10
2.13000000e+02	8.52490364e+10
2.14000000e+02	8.82919517e+10
2.15000000e+02	9.14333077e+10
2.16000000e+02	9.46757482e+10
2.17000000e+02	9.80219611e+10
2.18000000e+02	1.01474678e+11
2.19000000e+02	1.05036674e+11
2.20000000e+02	1.08710766e+11
2.21000000e+02	1.12499814e+11
2.22000000e+02	1.16406715e+11
2.23000000e+02	1.20434411e+11
2.24000000e+02	1.24585880e+11
2.25000000e+02	1.28864137e+11
2.26000000e+02	1.33272235e+11
2.27000000e+02	1.37813264e+11
2.28000000e+02	1.42490344e+11
2.29000000e+02	1.47306631e+11
2.30000000e+02	1.52265312e+11
2.31000000e+02	1.57369601e+11
2.32000000e+02	1.62622742e+11
2.33000000e+02	1.68028005e+11
2.34000000e+02	1.73588683e+11
2.35000000e+02	1.79308092e+11
2.36000000e+02	1.85189568e+11
2.37000000e+02	1.91236466e+11
2.38000000e+02	1.97452155e+11
2.39000000e+02	2.03840018e+11
2.40000000e+02	2.10403451e+11
2.41000000e+02	2.17145856e+11
2.42000000e+02	2.24070642e+11
2.43000000e+02	2.31181221e+11
2.44000000e+02	2.38481007e+11
2.45000000e+02	2.45973409e+11
2.46000000e+02	2.53661834e+11
2.47000000e+02	2.61549678e+11
2.48000000e+02	2.69640327e+11
2.49000000e+02	2.77937153e+11
2.50000000e+02	2.86443509e+11
2.51000000e+02	2.95162728e+11
2.52000000e+02	3.04098119e+11
2.53000000e+02	3.13252962e+11
2.54000000e+02	3.22630506e+11
2.55000000e+02	3.32233967e+11
2.56000000e+02	3.42066520e+11
2.57000000e+02	3.52131301e+11
2.58000000e+02	3.62431397e+11
2.59000000e+02	3.72969848e+11
2.60000000e+02	3.83749640e+11
2.61000000e+02	3.94773703e+11
2.62000000e+02	4.06044905e+11
2.63000000e+02	4.17566049e+11
2.64000000e+02	4.29339873e+11
2.65000000e+02	4.41369038e+11
2.66000000e+02	4.53656132e+11
2.67000000e+02	4.66203662e+11
2.68000000e+02	4.79014052e+11
2.69000000e+02	4.92089638e+11
2.70000000e+02	5.05432663e+11
2.71000000e+02	5.19045277e+11
2.72000000e+02	5.32929529e+11
2.73000000e+02	5.47087366e+11
2.74000000e+02	5.61520629e+11
2.75000000e+02	5.76231049e+11
2.76000000e+02	5.91220241e+11
2.77000000e+02	6.06489705e+11
2.78000000e+02	6.22040820e+11
2.79000000e+02	6.37874839e+11
2.80000000e+02	6.53992890e+11
2.81000000e+02	6.70395968e+11
2.82000000e+02	6.87084934e+11
2.83000000e+02	7.04060514e+11
2.84000000e+02	7.21323292e+11
2.85000000e+02	7.38873710e+11
2.86000000e+02	7.56712063e+11
2.87000000e+02	7.74838500e+11
2.88000000e+02	7.93253016e+11
2.89000000e+02	8.11955455e+11
2.90000000e+02	8.30945504e+11
2.91000000e+02	8.50222692e+11
2.92000000e+02	8.69786390e+11
2.93000000e+02	8.89635804e+11
2.94000000e+02	9.09769978e+11
2.95000000e+02	9.30187792e+11
2.96000000e+02	9.50887957e+11
2.97000000e+02	9.71869016e+11
2.98000000e+02	9.93129345e+11
2.99000000e+02	1.01466715e+12
3.00000000e+02	1.03648046e+12
3.01000000e+02	1.05856714e+12
3.02000000e+02	1.08092487e+12
3.03000000e+02	1.10355118e+12
3.04000000e+02	1.12644340e+12
3.05000000e+02	1.14959871e+12
3.06000000e+02	1.17301410e+12
3.07000000e+02	1.19668640e+12
3.08000000e+02	1.22061226e+12
3.09000000e+02	1.24478816e+12
3.10000000e+02	1.26921041e+12
3.11000000e+02	1.29387515e+12
3.12000000e+02	1.31877834e+12
3.13000000e+02	1.34391580e+12
3.14000000e+02	1.36928316e+12
3.15000000e+02	1.39487589e+12
3.16000000e+02	1.42068930e+12
3.17000000e+02	1.44671855e+12
3.18000000e+02	1.47295861e+12
3.19000000e+02	1.49940432e+12
3.20000000e+02	1.52605037e+12
3.21000000e+02	1.55289127e+12
3.22000000e+02	1.57992141e+12
3.23000000e+02	1.60713501e+12
3.24000000e+02	1.63452616e+12
3.25000000e+02	1.66208881e+12
3.26000000e+02	1.68981676e+12
3.27000000e+02	1.71770370e+12
3.28000000e+02	1.74574316e+12
3.29000000e+02	1.77392856e+12
3.30000000e+02	1.80225318e+12
3.31000000e+02	1.83071021e+12
3.32000000e+02	1.85929270e+12
3.33000000e+02	1.88799359e+12
3.34000000e+02	1.91680571e+12
3.35000000e+02	1.94572179e+12
3.36000000e+02	1.97473446e+12
3.37000000e+02	2.00383626e+12
3.38000000e+02	2.03301962e+12
3.39000000e+02	2.06227690e+12
3.40000000e+02	2.09160036e+12
3.41000000e+02	2.12098221e+12
3.42000000e+02	2.15041454e+12
3.43000000e+02	2.17988942e+12
3.44000000e+02	2.20939881e+12
3.45000000e+02	2.23893464e+12
3.46000000e+02	2.26848878e+12
3.47000000e+02	2.29805303e+12
3.48000000e+02	2.32761916e+12
3.49000000e+02	2.35717889e+12
3.50000000e+02	2.38672391e+12
3.51000000e+02	2.41624587e+12
3.52000000e+02	2.44573638e+12
3.53000000e+02	2.47518705e+12
3.54000000e+02	2.50458947e+12
3.55000000e+02	2.53393518e+12
3.56000000e+02	2.56321575e+12
3.57000000e+02	2.59242272e+12
3.58000000e+02	2.62154764e+12
3.59000000e+02	2.65058206e+12
3.60000000e+02	2.67951754e+12
3.61000000e+02	2.70834565e+12
3.62000000e+02	2.73705796e+12
3.63000000e+02	2.76564609e+12
3.64000000e+02	2.79410167e+12
3.65000000e+02	2.82241634e+12
3.66000000e+02	2.85058181e+12
3.67000000e+02	2.87858978e+12
3.68000000e+02	2.90643204e+12
3.69000000e+02	2.93410039e+12
3.70000000e+02	2.96158668e+12
3.71000000e+02	2.98888282e+12
3.72000000e+02	3.01598076e+12
3.73000000e+02	3.04287252e+12
3.74000000e+02	3.06955019e+12
3.75000000e+02	3.09600589e+12
3.76000000e+02	3.12223182e+12
3.77000000e+02	3.14822028e+12
3.78000000e+02	3.17396358e+12
3.79000000e+02	3.19945416e+12
3.80000000e+02	3.22468450e+12
3.81000000e+02	3.24964717e+12
3.82000000e+02	3.27433481e+12
3.83000000e+02	3.29874016e+12
3.84000000e+02	3.32285602e+12
3.85000000e+02	3.34667528e+12
3.86000000e+02	3.37019092e+12
3.87000000e+02	3.39339600e+12
3.88000000e+02	3.41628365e+12
3.89000000e+02	3.43884712e+12
3.90000000e+02	3.46107971e+12
3.91000000e+02	3.48297482e+12
3.92000000e+02	3.50452595e+12
3.93000000e+02	3.52572664e+12
3.94000000e+02	3.54657057e+12
3.95000000e+02	3.56705144e+12
3.96000000e+02	3.58716308e+12
3.97000000e+02	3.60689937e+12
3.98000000e+02	3.62625428e+12
3.99000000e+02	3.64522184e+12
4.00000000e+02	3.66379616e+12
4.01000000e+02	3.68197142e+12
4.02000000e+02	3.69974185e+12
4.03000000e+02	3.71710175e+12
4.04000000e+02	3.73404548e+12
4.05000000e+02	3.75056745e+12
4.06000000e+02	3.76666212e+12
4.07000000e+02	3.78232400e+12
4.08000000e+02	3.79754763e+12
4.09000000e+02	3.81232758e+12
4.10000000e+02	3.82665848e+12
4.11000000e+02	3.84053495e+12
4.12000000e+02	3.85395165e+12
4.13000000e+02	3.86690325e+12
4.14000000e+02	3.87938445e+12
4.15000000e+02	3.89138991e+12
4.16000000e+02	3.90291434e+12
4.17000000e+02	3.91395242e+12
4.18000000e+02	3.92449880e+12
4.19000000e+02	3.93454816e+12
4.20000000e+02	3.94409513e+12
4.21000000e+02	3.95313433e+12
4.22000000e+02	3.96166033e+12
4.23000000e+02	3.96966769e+12
4.24000000e+02	3.97715093e+12
4.25000000e+02	3.98410452e+12
4.26000000e+02	3.99052292e+12
4.27000000e+02	3.99640051e+12
4.28000000e+02	4.00173164e+12
4.29000000e+02	4.00651063e+12
4.30000000e+02	4.01073174e+12
4.31000000e+02	4.01438919e+12
4.32000000e+02	4.01747715e+12
4.33000000e+02	4.01998976e+12
4.34000000e+02	4.02192112e+12
4.35000000e+02	4.02326530e+12
4.36000000e+02	4.02401633e+12
4.37000000e+02	4.02416822e+12
4.38000000e+02	4.02371498e+12
4.39000000e+02	4.02265058e+12
4.40000000e+02	4.02096902e+12
4.41000000e+02	4.01866430e+12
4.42000000e+02	4.01573043e+12
4.43000000e+02	4.01216144e+12
4.44000000e+02	4.00795144e+12
4.45000000e+02	4.00309457e+12
4.46000000e+02	3.99758503e+12
4.47000000e+02	3.99141712e+12
4.48000000e+02	3.98458526e+12
4.49000000e+02	3.97708394e+12
4.50000000e+02	3.96890783e+12
4.51000000e+02	3.96005171e+12
4.52000000e+02	3.95051058e+12
4.53000000e+02	3.94027959e+12
4.54000000e+02	3.92935412e+12
4.55000000e+02	3.91772978e+12
4.56000000e+02	3.90540243e+12
4.57000000e+02	3.89236821e+12
4.58000000e+02	3.87862356e+12
4.59000000e+02	3.86416522e+12
4.60000000e+02	3.84899030e+12
4.61000000e+02	3.83309627e+12
4.62000000e+02	3.81648096e+12
4.63000000e+02	3.79914266e+12
4.64000000e+02	3.78108005e+12
4.65000000e+02	3.76229231e+12
4.66000000e+02	3.74277908e+12
4.67000000e+02	3.72254052e+12
4.68000000e+02	3.70157729e+12
4.69000000e+02	3.67989065e+12
4.70000000e+02	3.65748240e+12
4.71000000e+02	3.63435495e+12
4.72000000e+02	3.61051132e+12
4.73000000e+02	3.58595518e+12
4.74000000e+02	3.56069085e+12
4.75000000e+02	3.53472334e+12
4.76000000e+02	3.50805833e+12
4.77000000e+02	3.48070223e+12
4.78000000e+02	3.45266215e+12
4.79000000e+02	3.42394597e+12
4.80000000e+02	3.39456229e+12
4.81000000e+02	3.36452046e+12
4.82000000e+02	3.33383061e+12
4.83000000e+02	3.30250362e+12
4.84000000e+02	3.27055111e+12
4.85000000e+02	3.23798549e+12
4.86000000e+02	3.20481990e+12
4.87000000e+02	3.17106822e+12
4.88000000e+02	3.13674504e+12
4.89000000e+02	3.10186567e+12
4.90000000e+02	3.06644610e+12
4.91000000e+02	3.03050296e+12
4.92000000e+02	2.99405350e+12
4.93000000e+02	2.95711556e+12
4.94000000e+02	2.91970751e+12
4.95000000e+02	2.88184824e+12
4.96000000e+02	2.84355708e+12
4.97000000e+02	2.80485377e+12
4.98000000e+02	2.76575838e+12
4.99000000e+02	2.72629129e+12
5.00000000e+02	2.68647311e+12
5.01000000e+02	2.64632465e+12
5.02000000e+02	2.60586681e+12
5.03000000e+02	2.56512057e+12
5.04000000e+02	2.52410693e+12
5.05000000e+02	2.48284683e+12
5.06000000e+02	2.44136113e+12
5.07000000e+02	2.39967054e+12
5.08000000e+02	2.35779560e+12
5.09000000e+02	2.31575664e+12
5.10000000e+02	2.27357371e+12
5.11000000e+02	2.23126662e+12
5.12000000e+02	2.18885489e+12
5.13000000e+02	2.14635772e+12
5.14000000e+02	2.10379404e+12
5.15000000e+02	2.06118245e+12
5.16000000e+02	2.01854128e+12
5.17000000e+02	1.97588860e+12
5.18000000e+02	1.93324223e+12
5.19000000e+02	1.89061979e+12
5.20000000e+02	1.84803872e+12
5.21000000e+02	1.80551634e+12
5.22000000e+02	1.76306990e+12
5.23000000e+02	1.72071661e+12
5.24000000e+02	1.67847374e+12
5.25000000e+02	1.63635862e+12
5.26000000e+02	1.59438874e+12
5.27000000e+02	1.55258181e+12
5.28000000e+02	1.51095580e+12
5.29000000e+02	1.46952902e+12
5.30000000e+02	1.42832015e+12
5.31000000e+02	1.38734831e+12
5.32000000e+02	1.34663310e+12
5.33000000e+02	1.30619465e+12
5.34000000e+02	1.26605363e+12
5.35000000e+02	1.22623130e+12
5.36000000e+02	1.18674950e+12
5.37000000e+02	1.14763068e+12
5.38000000e+02	1.10889788e+12
5.39000000e+02	1.07057473e+12
5.40000000e+02	1.03268539e+12
5.41000000e+02	9.95254513e+11
5.42000000e+02	9.58307215e+11
5.43000000e+02	9.21868975e+11
5.44000000e+02	8.85965559e+11
5.45000000e+02	8.50622920e+11
5.46000000e+02	8.15867085e+11
5.47000000e+02	7.81724025e+11
5.48000000e+02	7.48219522e+11
5.49000000e+02	7.15379011e+11
5.50000000e+02	6.83227425e+11
5.51000000e+02	6.51789027e+11
5.52000000e+02	6.21087230e+11
5.53000000e+02	5.91144420e+11
5.54000000e+02	5.61981776e+11
5.55000000e+02	5.33619086e+11
5.56000000e+02	5.06074570e+11
5.57000000e+02	4.79364708e+11
5.58000000e+02	4.53504076e+11
5.59000000e+02	4.28505194e+11
5.60000000e+02	4.04378391e+11
5.61000000e+02	3.81131682e+11
5.62000000e+02	3.58770668e+11
5.63000000e+02	3.37298456e+11
5.64000000e+02	3.16715607e+11
5.65000000e+02	2.97020101e+11
5.66000000e+02	2.78207332e+11
5.67000000e+02	2.60270133e+11
5.68000000e+02	2.43198823e+11
5.69000000e+02	2.26981276e+11
5.70000000e+02	2.11603025e+11
5.71000000e+02	1.97047382e+11
5.72000000e+02	1.83295579e+11
5.73000000e+02	1.70326935e+11
5.74000000e+02	1.58119026e+11
5.75000000e+02	1.46647886e+11
5.76000000e+02	1.35888201e+11
5.77000000e+02	1.25813521e+11
5.78000000e+02	1.16396471e+11
5.79000000e+02	1.07608964e+11
5.80000000e+02	9.94224092e+10
5.81000000e+02	9.18079180e+10
5.82000000e+02	8.47364977e+10
5.83000000e+02	7.81792379e+10
5.84000000e+02	7.21074837e+10
5.85000000e+02	6.64929939e+10
5.86000000e+02	6.13080852e+10
5.87000000e+02	5.65257599e+10
5.88000000e+02	5.21198170e+10
5.89000000e+02	4.80649471e+10
5.90000000e+02	4.43368102e+10
5.91000000e+02	4.09120981e+10
5.92000000e+02	3.77685815e+10
5.93000000e+02	3.48851421e+10
5.94000000e+02	3.22417920e+10
5.95000000e+02	2.98196805e+10
5.96000000e+02	2.76010898e+10
5.97000000e+02	2.55694214e+10
5.98000000e+02	2.37091737e+10
5.99000000e+02	2.20059124e+10
6.00000000e+02	2.04462348e+10
6.01000000e+02	1.90177299e+10
6.02000000e+02	1.77089345e+10
6.03000000e+02	1.65092862e+10
6.04000000e+02	1.54090744e+10
6.05000000e+02	1.43993915e+10
6.06000000e+02	1.34720824e+10
6.07000000e+02	1.26196950e+10
6.08000000e+02	1.18354319e+10
6.09000000e+02	1.11131022e+10
6.10000000e+02	1.04470764e+10
6.11000000e+02	9.83224149e+09
6.12000000e+02	9.26395991e+09
6.13000000e+02	8.73802928e+09
6.14000000e+02	8.25064528e+09
6.15000000e+02	7.79836657e+09
6.16000000e+02	7.37808215e+09
6.17000000e+02	6.98698109e+09
6.18000000e+02	6.62252447e+09
6.19000000e+02	6.28241957e+09
6.20000000e+02	5.96459616e+09
6.21000000e+02	5.66718479e+09
6.22000000e+02	5.38849701e+09
6.23000000e+02	5.12700729e+09
6.24000000e+02	4.88133670e+09
6.25000000e+02	4.65023804e+09
6.26000000e+02	4.43258245e+09
6.27000000e+02	4.22734729e+09
6.28000000e+02	4.03360528e+09
6.29000000e+02	3.85051467e+09
6.30000000e+02	3.67731043e+09
6.31000000e+02	3.51329639e+09
6.32000000e+02	3.35783817e+09
6.33000000e+02	3.21035686e+09
6.34000000e+02	3.07032335e+09
6.35000000e+02	2.93725334e+09
6.36000000e+02	2.81070283e+09
6.37000000e+02	2.69026411e+09
6.38000000e+02	2.57556218e+09
6.39000000e+02	2.46625165e+09
6.40000000e+02	2.36201383e+09
6.41000000e+02	2.26255426e+09
6.42000000e+02	2.16760045e+09
6.43000000e+02	2.07689987e+09
6.44000000e+02	1.99021816e+09
6.45000000e+02	1.90733751e+09
6.46000000e+02	1.82805518e+09
6.47000000e+02	1.75218220e+09
6.48000000e+02	1.67954220e+09
6.49000000e+02	1.60997024e+09
6.50000000e+02	1.54331189e+09
6.51000000e+02	1.47942230e+09
6.52000000e+02	1.41816533e+09
6.53000000e+02	1.35941284e+09
6.54000000e+02	1.30304396e+09
6.55000000e+02	1.24894448e+09
6.56000000e+02	1.19700626e+09
6.57000000e+02	1.14712676e+09
6.58000000e+02	1.09920851e+09
6.59000000e+02	1.05315878e+09
