# Profil de Te au temps 8.000000000000092e-12 
# simu : /Volumes/MERCURE/JOBS/Zeq2_tanh_50mic_7p5e19_B0_20ps/GNU/Te@y-c.set
# col 0 : abscisse (um)
# col 1 : Te (keV)
5.00000000e-01	9.99968594e-01
1.50000000e+00	9.99968541e-01
2.50000000e+00	9.99968447e-01
3.50000000e+00	9.99968306e-01
4.50000000e+00	9.99968114e-01
5.50000000e+00	9.99967872e-01
6.50000000e+00	9.99967582e-01
7.50000000e+00	9.99967242e-01
8.50000000e+00	9.99966852e-01
9.50000000e+00	9.99966411e-01
1.05000000e+01	9.99965919e-01
1.15000000e+01	9.99965376e-01
1.25000000e+01	9.99964780e-01
1.35000000e+01	9.99964131e-01
1.45000000e+01	9.99963427e-01
1.55000000e+01	9.99962668e-01
1.65000000e+01	9.99961853e-01
1.75000000e+01	9.99960981e-01
1.85000000e+01	9.99960051e-01
1.95000000e+01	9.99959061e-01
2.05000000e+01	9.99958009e-01
2.15000000e+01	9.99956896e-01
2.25000000e+01	9.99955718e-01
2.35000000e+01	9.99954475e-01
2.45000000e+01	9.99953165e-01
2.55000000e+01	9.99951785e-01
2.65000000e+01	9.99950336e-01
2.75000000e+01	9.99948813e-01
2.85000000e+01	9.99947216e-01
2.95000000e+01	9.99945542e-01
3.05000000e+01	9.99943789e-01
3.15000000e+01	9.99941955e-01
3.25000000e+01	9.99940037e-01
3.35000000e+01	9.99938033e-01
3.45000000e+01	9.99935941e-01
3.55000000e+01	9.99933757e-01
3.65000000e+01	9.99931478e-01
3.75000000e+01	9.99929103e-01
3.85000000e+01	9.99926628e-01
3.95000000e+01	9.99924049e-01
4.05000000e+01	9.99921364e-01
4.15000000e+01	9.99918568e-01
4.25000000e+01	9.99915660e-01
4.35000000e+01	9.99912634e-01
4.45000000e+01	9.99909487e-01
4.55000000e+01	9.99906216e-01
4.65000000e+01	9.99902816e-01
4.75000000e+01	9.99899283e-01
4.85000000e+01	9.99895612e-01
4.95000000e+01	9.99891800e-01
5.05000000e+01	9.99887842e-01
5.15000000e+01	9.99883732e-01
5.25000000e+01	9.99879466e-01
5.35000000e+01	9.99875040e-01
5.45000000e+01	9.99870446e-01
5.55000000e+01	9.99865681e-01
5.65000000e+01	9.99860739e-01
5.75000000e+01	9.99855613e-01
5.85000000e+01	9.99850298e-01
5.95000000e+01	9.99844788e-01
6.05000000e+01	9.99839076e-01
6.15000000e+01	9.99833156e-01
6.25000000e+01	9.99827020e-01
6.35000000e+01	9.99820663e-01
6.45000000e+01	9.99814078e-01
6.55000000e+01	9.99807255e-01
6.65000000e+01	9.99800189e-01
6.75000000e+01	9.99792871e-01
6.85000000e+01	9.99785293e-01
6.95000000e+01	9.99777447e-01
7.05000000e+01	9.99769325e-01
7.15000000e+01	9.99760918e-01
7.25000000e+01	9.99752216e-01
7.35000000e+01	9.99743211e-01
7.45000000e+01	9.99733892e-01
7.55000000e+01	9.99724252e-01
7.65000000e+01	9.99714278e-01
7.75000000e+01	9.99703961e-01
7.85000000e+01	9.99693291e-01
7.95000000e+01	9.99682257e-01
8.05000000e+01	9.99670847e-01
8.15000000e+01	9.99659049e-01
8.25000000e+01	9.99646853e-01
8.35000000e+01	9.99634247e-01
8.45000000e+01	9.99621217e-01
8.55000000e+01	9.99607751e-01
8.65000000e+01	9.99593837e-01
8.75000000e+01	9.99579460e-01
8.85000000e+01	9.99564608e-01
8.95000000e+01	9.99549266e-01
9.05000000e+01	9.99533420e-01
9.15000000e+01	9.99517056e-01
9.25000000e+01	9.99500158e-01
9.35000000e+01	9.99482710e-01
9.45000000e+01	9.99464698e-01
9.55000000e+01	9.99446105e-01
9.65000000e+01	9.99426915e-01
9.75000000e+01	9.99407111e-01
9.85000000e+01	9.99386675e-01
9.95000000e+01	9.99365591e-01
1.00500000e+02	9.99343839e-01
1.01500000e+02	9.99321402e-01
1.02500000e+02	9.99298261e-01
1.03500000e+02	9.99274396e-01
1.04500000e+02	9.99249788e-01
1.05500000e+02	9.99224418e-01
1.06500000e+02	9.99198264e-01
1.07500000e+02	9.99171305e-01
1.08500000e+02	9.99143521e-01
1.09500000e+02	9.99114890e-01
1.10500000e+02	9.99085389e-01
1.11500000e+02	9.99054997e-01
1.12500000e+02	9.99023689e-01
1.13500000e+02	9.98991443e-01
1.14500000e+02	9.98958234e-01
1.15500000e+02	9.98924039e-01
1.16500000e+02	9.98888833e-01
1.17500000e+02	9.98852589e-01
1.18500000e+02	9.98815283e-01
1.19500000e+02	9.98776889e-01
1.20500000e+02	9.98737379e-01
1.21500000e+02	9.98696727e-01
1.22500000e+02	9.98654906e-01
1.23500000e+02	9.98611886e-01
1.24500000e+02	9.98567641e-01
1.25500000e+02	9.98522140e-01
1.26500000e+02	9.98475355e-01
1.27500000e+02	9.98427255e-01
1.28500000e+02	9.98377811e-01
1.29500000e+02	9.98326992e-01
1.30500000e+02	9.98274766e-01
1.31500000e+02	9.98221102e-01
1.32500000e+02	9.98165967e-01
1.33500000e+02	9.98109330e-01
1.34500000e+02	9.98051157e-01
1.35500000e+02	9.97991414e-01
1.36500000e+02	9.97930068e-01
1.37500000e+02	9.97867084e-01
1.38500000e+02	9.97802428e-01
1.39500000e+02	9.97736064e-01
1.40500000e+02	9.97667956e-01
1.41500000e+02	9.97598069e-01
1.42500000e+02	9.97526366e-01
1.43500000e+02	9.97452810e-01
1.44500000e+02	9.97377363e-01
1.45500000e+02	9.97299988e-01
1.46500000e+02	9.97220647e-01
1.47500000e+02	9.97139301e-01
1.48500000e+02	9.97055911e-01
1.49500000e+02	9.96970438e-01
1.50500000e+02	9.96882842e-01
1.51500000e+02	9.96793082e-01
1.52500000e+02	9.96701119e-01
1.53500000e+02	9.96606912e-01
1.54500000e+02	9.96510419e-01
1.55500000e+02	9.96411599e-01
1.56500000e+02	9.96310411e-01
1.57500000e+02	9.96206811e-01
1.58500000e+02	9.96100759e-01
1.59500000e+02	9.95992210e-01
1.60500000e+02	9.95881122e-01
1.61500000e+02	9.95767451e-01
1.62500000e+02	9.95651155e-01
1.63500000e+02	9.95532188e-01
1.64500000e+02	9.95410508e-01
1.65500000e+02	9.95286070e-01
1.66500000e+02	9.95158829e-01
1.67500000e+02	9.95028741e-01
1.68500000e+02	9.94895761e-01
1.69500000e+02	9.94759843e-01
1.70500000e+02	9.94620943e-01
1.71500000e+02	9.94479014e-01
1.72500000e+02	9.94334013e-01
1.73500000e+02	9.94185892e-01
1.74500000e+02	9.94034606e-01
1.75500000e+02	9.93880109e-01
1.76500000e+02	9.93722355e-01
1.77500000e+02	9.93561298e-01
1.78500000e+02	9.93396893e-01
1.79500000e+02	9.93229092e-01
1.80500000e+02	9.93057850e-01
1.81500000e+02	9.92883120e-01
1.82500000e+02	9.92704857e-01
1.83500000e+02	9.92523014e-01
1.84500000e+02	9.92337545e-01
1.85500000e+02	9.92148404e-01
1.86500000e+02	9.91955544e-01
1.87500000e+02	9.91758921e-01
1.88500000e+02	9.91558487e-01
1.89500000e+02	9.91354198e-01
1.90500000e+02	9.91146008e-01
1.91500000e+02	9.90933871e-01
1.92500000e+02	9.90717741e-01
1.93500000e+02	9.90497575e-01
1.94500000e+02	9.90273326e-01
1.95500000e+02	9.90044949e-01
1.96500000e+02	9.89812402e-01
1.97500000e+02	9.89575638e-01
1.98500000e+02	9.89334614e-01
1.99500000e+02	9.89089285e-01
2.00500000e+02	9.88839609e-01
2.01500000e+02	9.88585542e-01
2.02500000e+02	9.88327042e-01
2.03500000e+02	9.88064064e-01
2.04500000e+02	9.87796567e-01
2.05500000e+02	9.87524509e-01
2.06500000e+02	9.87247848e-01
2.07500000e+02	9.86966543e-01
2.08500000e+02	9.86680552e-01
2.09500000e+02	9.86389836e-01
2.10500000e+02	9.86094353e-01
2.11500000e+02	9.85794065e-01
2.12500000e+02	9.85488931e-01
2.13500000e+02	9.85178913e-01
2.14500000e+02	9.84863973e-01
2.15500000e+02	9.84544071e-01
2.16500000e+02	9.84219171e-01
2.17500000e+02	9.83889235e-01
2.18500000e+02	9.83554227e-01
2.19500000e+02	9.83214110e-01
2.20500000e+02	9.82868849e-01
2.21500000e+02	9.82518408e-01
2.22500000e+02	9.82162753e-01
2.23500000e+02	9.81801849e-01
2.24500000e+02	9.81435663e-01
2.25500000e+02	9.81064161e-01
2.26500000e+02	9.80687310e-01
2.27500000e+02	9.80305079e-01
2.28500000e+02	9.79917436e-01
2.29500000e+02	9.79524350e-01
2.30500000e+02	9.79125789e-01
2.31500000e+02	9.78721724e-01
2.32500000e+02	9.78312125e-01
2.33500000e+02	9.77896963e-01
2.34500000e+02	9.77476210e-01
2.35500000e+02	9.77049837e-01
2.36500000e+02	9.76617817e-01
2.37500000e+02	9.76180123e-01
2.38500000e+02	9.75736728e-01
2.39500000e+02	9.75287607e-01
2.40500000e+02	9.74832734e-01
2.41500000e+02	9.74372084e-01
2.42500000e+02	9.73905632e-01
2.43500000e+02	9.73433354e-01
2.44500000e+02	9.72955227e-01
2.45500000e+02	9.72471228e-01
2.46500000e+02	9.71981333e-01
2.47500000e+02	9.71485522e-01
2.48500000e+02	9.70983771e-01
2.49500000e+02	9.70476059e-01
2.50500000e+02	9.69962366e-01
2.51500000e+02	9.69442670e-01
2.52500000e+02	9.68916952e-01
2.53500000e+02	9.68385192e-01
2.54500000e+02	9.67847370e-01
2.55500000e+02	9.67303466e-01
2.56500000e+02	9.66753462e-01
2.57500000e+02	9.66197339e-01
2.58500000e+02	9.65635079e-01
2.59500000e+02	9.65066663e-01
2.60500000e+02	9.64492074e-01
2.61500000e+02	9.63911293e-01
2.62500000e+02	9.63324304e-01
2.63500000e+02	9.62731088e-01
2.64500000e+02	9.62131628e-01
2.65500000e+02	9.61525907e-01
2.66500000e+02	9.60913908e-01
2.67500000e+02	9.60295613e-01
2.68500000e+02	9.59671005e-01
2.69500000e+02	9.59040068e-01
2.70500000e+02	9.58402784e-01
2.71500000e+02	9.57759135e-01
2.72500000e+02	9.57109104e-01
2.73500000e+02	9.56452673e-01
2.74500000e+02	9.55789825e-01
2.75500000e+02	9.55120541e-01
2.76500000e+02	9.54444804e-01
2.77500000e+02	9.53762593e-01
2.78500000e+02	9.53073891e-01
2.79500000e+02	9.52378678e-01
2.80500000e+02	9.51676935e-01
2.81500000e+02	9.50968640e-01
2.82500000e+02	9.50253773e-01
2.83500000e+02	9.49532313e-01
2.84500000e+02	9.48804238e-01
2.85500000e+02	9.48069524e-01
2.86500000e+02	9.47328150e-01
2.87500000e+02	9.46580090e-01
2.88500000e+02	9.45825320e-01
2.89500000e+02	9.45063813e-01
2.90500000e+02	9.44295545e-01
2.91500000e+02	9.43520486e-01
2.92500000e+02	9.42738608e-01
2.93500000e+02	9.41949882e-01
2.94500000e+02	9.41154276e-01
2.95500000e+02	9.40351759e-01
2.96500000e+02	9.39542298e-01
2.97500000e+02	9.38725858e-01
2.98500000e+02	9.37902403e-01
2.99500000e+02	9.37071896e-01
3.00500000e+02	9.36234298e-01
3.01500000e+02	9.35389569e-01
3.02500000e+02	9.34537666e-01
3.03500000e+02	9.33678547e-01
3.04500000e+02	9.32812166e-01
3.05500000e+02	9.31938476e-01
3.06500000e+02	9.31057427e-01
3.07500000e+02	9.30168969e-01
3.08500000e+02	9.29273049e-01
3.09500000e+02	9.28369611e-01
3.10500000e+02	9.27458598e-01
3.11500000e+02	9.26539951e-01
3.12500000e+02	9.25613608e-01
3.13500000e+02	9.24679504e-01
3.14500000e+02	9.23737572e-01
3.15500000e+02	9.22787745e-01
3.16500000e+02	9.21829948e-01
3.17500000e+02	9.20864108e-01
3.18500000e+02	9.19890147e-01
3.19500000e+02	9.18907986e-01
3.20500000e+02	9.17917539e-01
3.21500000e+02	9.16918722e-01
3.22500000e+02	9.15911444e-01
3.23500000e+02	9.14895612e-01
3.24500000e+02	9.13871132e-01
3.25500000e+02	9.12837902e-01
3.26500000e+02	9.11795820e-01
3.27500000e+02	9.10744780e-01
3.28500000e+02	9.09684672e-01
3.29500000e+02	9.08615381e-01
3.30500000e+02	9.07536789e-01
3.31500000e+02	9.06448775e-01
3.32500000e+02	9.05351213e-01
3.33500000e+02	9.04243974e-01
3.34500000e+02	9.03126923e-01
3.35500000e+02	9.01999921e-01
3.36500000e+02	9.00862827e-01
3.37500000e+02	8.99715492e-01
3.38500000e+02	8.98557766e-01
3.39500000e+02	8.97389491e-01
3.40500000e+02	8.96210507e-01
3.41500000e+02	8.95020648e-01
3.42500000e+02	8.93819743e-01
3.43500000e+02	8.92607617e-01
3.44500000e+02	8.91384088e-01
3.45500000e+02	8.90148971e-01
3.46500000e+02	8.88902074e-01
3.47500000e+02	8.87643203e-01
3.48500000e+02	8.86372154e-01
3.49500000e+02	8.85088720e-01
3.50500000e+02	8.83792690e-01
3.51500000e+02	8.82483846e-01
3.52500000e+02	8.81161963e-01
3.53500000e+02	8.79826813e-01
3.54500000e+02	8.78478161e-01
3.55500000e+02	8.77115766e-01
3.56500000e+02	8.75739382e-01
3.57500000e+02	8.74348757e-01
3.58500000e+02	8.72943634e-01
3.59500000e+02	8.71523748e-01
3.60500000e+02	8.70088830e-01
3.61500000e+02	8.68638605e-01
3.62500000e+02	8.67172793e-01
3.63500000e+02	8.65691105e-01
3.64500000e+02	8.64193249e-01
3.65500000e+02	8.62678928e-01
3.66500000e+02	8.61147836e-01
3.67500000e+02	8.59599664e-01
3.68500000e+02	8.58034097e-01
3.69500000e+02	8.56450812e-01
3.70500000e+02	8.54849484e-01
3.71500000e+02	8.53229781e-01
3.72500000e+02	8.51591365e-01
3.73500000e+02	8.49933894e-01
3.74500000e+02	8.48257019e-01
3.75500000e+02	8.46560389e-01
3.76500000e+02	8.44843645e-01
3.77500000e+02	8.43106426e-01
3.78500000e+02	8.41348364e-01
3.79500000e+02	8.39569089e-01
3.80500000e+02	8.37768225e-01
3.81500000e+02	8.35945393e-01
3.82500000e+02	8.34100209e-01
3.83500000e+02	8.32232288e-01
3.84500000e+02	8.30341239e-01
3.85500000e+02	8.28426669e-01
3.86500000e+02	8.26488183e-01
3.87500000e+02	8.24525383e-01
3.88500000e+02	8.22537867e-01
3.89500000e+02	8.20525234e-01
3.90500000e+02	8.18487081e-01
3.91500000e+02	8.16423001e-01
3.92500000e+02	8.14332590e-01
3.93500000e+02	8.12215441e-01
3.94500000e+02	8.10071147e-01
3.95500000e+02	8.07899303e-01
3.96500000e+02	8.05699502e-01
3.97500000e+02	8.03471341e-01
3.98500000e+02	8.01214418e-01
3.99500000e+02	7.98928330e-01
4.00500000e+02	7.96612680e-01
4.01500000e+02	7.94267073e-01
4.02500000e+02	7.91891117e-01
4.03500000e+02	7.89484424e-01
4.04500000e+02	7.87046611e-01
4.05500000e+02	7.84577299e-01
4.06500000e+02	7.82076115e-01
4.07500000e+02	7.79542693e-01
4.08500000e+02	7.76976672e-01
4.09500000e+02	7.74377700e-01
4.10500000e+02	7.71745431e-01
4.11500000e+02	7.69079529e-01
4.12500000e+02	7.66379665e-01
4.13500000e+02	7.63645522e-01
4.14500000e+02	7.60876791e-01
4.15500000e+02	7.58073175e-01
4.16500000e+02	7.55234388e-01
4.17500000e+02	7.52360156e-01
4.18500000e+02	7.49450218e-01
4.19500000e+02	7.46504325e-01
4.20500000e+02	7.43522244e-01
4.21500000e+02	7.40503754e-01
4.22500000e+02	7.37448652e-01
4.23500000e+02	7.34356749e-01
4.24500000e+02	7.31227871e-01
4.25500000e+02	7.28061865e-01
4.26500000e+02	7.24858592e-01
4.27500000e+02	7.21617932e-01
4.28500000e+02	7.18339785e-01
4.29500000e+02	7.15024069e-01
4.30500000e+02	7.11670724e-01
4.31500000e+02	7.08279708e-01
4.32500000e+02	7.04851001e-01
4.33500000e+02	7.01384605e-01
4.34500000e+02	6.97880545e-01
4.35500000e+02	6.94338865e-01
4.36500000e+02	6.90759637e-01
4.37500000e+02	6.87142953e-01
4.38500000e+02	6.83488929e-01
4.39500000e+02	6.79797708e-01
4.40500000e+02	6.76069456e-01
4.41500000e+02	6.72304364e-01
4.42500000e+02	6.68502648e-01
4.43500000e+02	6.64664551e-01
4.44500000e+02	6.60790342e-01
4.45500000e+02	6.56880315e-01
4.46500000e+02	6.52934792e-01
4.47500000e+02	6.48954122e-01
4.48500000e+02	6.44938678e-01
4.49500000e+02	6.40888865e-01
4.50500000e+02	6.36805110e-01
4.51500000e+02	6.32687871e-01
4.52500000e+02	6.28537633e-01
4.53500000e+02	6.24354907e-01
4.54500000e+02	6.20140233e-01
4.55500000e+02	6.15894177e-01
4.56500000e+02	6.11617335e-01
4.57500000e+02	6.07310329e-01
4.58500000e+02	6.02973809e-01
4.59500000e+02	5.98608453e-01
4.60500000e+02	5.94214967e-01
4.61500000e+02	5.89794083e-01
4.62500000e+02	5.85346563e-01
4.63500000e+02	5.80873196e-01
4.64500000e+02	5.76374798e-01
4.65500000e+02	5.71852213e-01
4.66500000e+02	5.67306314e-01
4.67500000e+02	5.62738000e-01
4.68500000e+02	5.58148200e-01
4.69500000e+02	5.53537870e-01
4.70500000e+02	5.48907994e-01
4.71500000e+02	5.44259586e-01
4.72500000e+02	5.39593687e-01
4.73500000e+02	5.34911367e-01
4.74500000e+02	5.30213725e-01
4.75500000e+02	5.25501891e-01
4.76500000e+02	5.20777022e-01
4.77500000e+02	5.16040306e-01
4.78500000e+02	5.11292961e-01
4.79500000e+02	5.06536235e-01
4.80500000e+02	5.01771406e-01
4.81500000e+02	4.96999784e-01
4.82500000e+02	4.92222708e-01
4.83500000e+02	4.87441550e-01
4.84500000e+02	4.82657711e-01
4.85500000e+02	4.77872623e-01
4.86500000e+02	4.73087751e-01
4.87500000e+02	4.68304589e-01
4.88500000e+02	4.63524661e-01
4.89500000e+02	4.58749521e-01
4.90500000e+02	4.53980753e-01
4.91500000e+02	4.49219969e-01
4.92500000e+02	4.44468806e-01
4.93500000e+02	4.39728929e-01
4.94500000e+02	4.35002029e-01
4.95500000e+02	4.30289815e-01
4.96500000e+02	4.25594022e-01
4.97500000e+02	4.20916400e-01
4.98500000e+02	4.16258716e-01
4.99500000e+02	4.11622751e-01
5.00500000e+02	4.07010293e-01
5.01500000e+02	4.02423140e-01
5.02500000e+02	3.97863090e-01
5.03500000e+02	3.93331944e-01
5.04500000e+02	3.88831492e-01
5.05500000e+02	3.84363519e-01
5.06500000e+02	3.79929792e-01
5.07500000e+02	3.75532062e-01
5.08500000e+02	3.71172052e-01
5.09500000e+02	3.66851459e-01
5.10500000e+02	3.62571942e-01
5.11500000e+02	3.58335120e-01
5.12500000e+02	3.54142569e-01
5.13500000e+02	3.49995812e-01
5.14500000e+02	3.45896317e-01
5.15500000e+02	3.41845489e-01
5.16500000e+02	3.37844669e-01
5.17500000e+02	3.33895128e-01
5.18500000e+02	3.29998061e-01
5.19500000e+02	3.26154584e-01
5.20500000e+02	3.22365732e-01
5.21500000e+02	3.18632453e-01
5.22500000e+02	3.14955608e-01
5.23500000e+02	3.11335966e-01
5.24500000e+02	3.07774206e-01
5.25500000e+02	3.04270912e-01
5.26500000e+02	3.00826573e-01
5.27500000e+02	2.97441586e-01
5.28500000e+02	2.94116251e-01
5.29500000e+02	2.90850777e-01
5.30500000e+02	2.87645279e-01
5.31500000e+02	2.84499783e-01
5.32500000e+02	2.81414226e-01
5.33500000e+02	2.78388460e-01
5.34500000e+02	2.75422252e-01
5.35500000e+02	2.72515292e-01
5.36500000e+02	2.69667193e-01
5.37500000e+02	2.66877495e-01
5.38500000e+02	2.64145672e-01
5.39500000e+02	2.61471131e-01
5.40500000e+02	2.58853221e-01
5.41500000e+02	2.56291236e-01
5.42500000e+02	2.53784417e-01
5.43500000e+02	2.51331960e-01
5.44500000e+02	2.48933019e-01
5.45500000e+02	2.46586710e-01
5.46500000e+02	2.44292113e-01
5.47500000e+02	2.42048283e-01
5.48500000e+02	2.39854247e-01
5.49500000e+02	2.37709012e-01
5.50500000e+02	2.35611566e-01
5.51500000e+02	2.33560885e-01
5.52500000e+02	2.31555935e-01
5.53500000e+02	2.29595673e-01
5.54500000e+02	2.27679053e-01
5.55500000e+02	2.25805030e-01
5.56500000e+02	2.23972559e-01
5.57500000e+02	2.22180600e-01
5.58500000e+02	2.20428120e-01
5.59500000e+02	2.18714096e-01
5.60500000e+02	2.17037514e-01
5.61500000e+02	2.15397377e-01
5.62500000e+02	2.13792700e-01
5.63500000e+02	2.12222517e-01
5.64500000e+02	2.10685878e-01
5.65500000e+02	2.09181856e-01
5.66500000e+02	2.07709541e-01
5.67500000e+02	2.06268048e-01
5.68500000e+02	2.04856515e-01
5.69500000e+02	2.03474104e-01
5.70500000e+02	2.02120000e-01
5.71500000e+02	2.00793415e-01
5.72500000e+02	1.99493590e-01
5.73500000e+02	1.98219788e-01
5.74500000e+02	1.96971303e-01
5.75500000e+02	1.95747456e-01
5.76500000e+02	1.94547595e-01
5.77500000e+02	1.93371098e-01
5.78500000e+02	1.92217370e-01
5.79500000e+02	1.91085845e-01
5.80500000e+02	1.89975986e-01
5.81500000e+02	1.88887284e-01
5.82500000e+02	1.87819259e-01
5.83500000e+02	1.86771457e-01
5.84500000e+02	1.85743454e-01
5.85500000e+02	1.84734852e-01
5.86500000e+02	1.83745279e-01
5.87500000e+02	1.82774391e-01
5.88500000e+02	1.81821868e-01
5.89500000e+02	1.80887414e-01
5.90500000e+02	1.79970759e-01
5.91500000e+02	1.79071654e-01
5.92500000e+02	1.78189873e-01
5.93500000e+02	1.77325209e-01
5.94500000e+02	1.76477477e-01
5.95500000e+02	1.75646508e-01
5.96500000e+02	1.74832152e-01
5.97500000e+02	1.74034273e-01
5.98500000e+02	1.73252750e-01
5.99500000e+02	1.72487475e-01
6.00500000e+02	1.71738350e-01
6.01500000e+02	1.71005289e-01
6.02500000e+02	1.70288213e-01
6.03500000e+02	1.69587050e-01
6.04500000e+02	1.68901731e-01
6.05500000e+02	1.68232193e-01
6.06500000e+02	1.67578375e-01
6.07500000e+02	1.66940215e-01
6.08500000e+02	1.66317652e-01
6.09500000e+02	1.65710621e-01
6.10500000e+02	1.65119053e-01
6.11500000e+02	1.64542876e-01
6.12500000e+02	1.63982012e-01
6.13500000e+02	1.63436375e-01
6.14500000e+02	1.62905875e-01
6.15500000e+02	1.62390397e-01
6.16500000e+02	1.61889835e-01
6.17500000e+02	1.61404066e-01
6.18500000e+02	1.60932957e-01
6.19500000e+02	1.60476363e-01
6.20500000e+02	1.60034128e-01
6.21500000e+02	1.59606085e-01
6.22500000e+02	1.59192052e-01
6.23500000e+02	1.58791840e-01
6.24500000e+02	1.58405247e-01
6.25500000e+02	1.58032059e-01
6.26500000e+02	1.57672051e-01
6.27500000e+02	1.57324990e-01
6.28500000e+02	1.56990632e-01
6.29500000e+02	1.56668724e-01
6.30500000e+02	1.56359004e-01
6.31500000e+02	1.56061206e-01
6.32500000e+02	1.55775051e-01
6.33500000e+02	1.55500260e-01
6.34500000e+02	1.55236546e-01
6.35500000e+02	1.54983619e-01
6.36500000e+02	1.54741182e-01
6.37500000e+02	1.54508942e-01
6.38500000e+02	1.54286597e-01
6.39500000e+02	1.54073850e-01
6.40500000e+02	1.53870401e-01
6.41500000e+02	1.53675950e-01
6.42500000e+02	1.53490200e-01
6.43500000e+02	1.53312857e-01
6.44500000e+02	1.53143626e-01
6.45500000e+02	1.52982220e-01
6.46500000e+02	1.52828351e-01
6.47500000e+02	1.52681741e-01
6.48500000e+02	1.52542112e-01
6.49500000e+02	1.52409193e-01
6.50500000e+02	1.52282720e-01
6.51500000e+02	1.52162434e-01
6.52500000e+02	1.52048082e-01
6.53500000e+02	1.51939417e-01
6.54500000e+02	1.51836201e-01
6.55500000e+02	1.51738201e-01
6.56500000e+02	1.51645191e-01
6.57500000e+02	1.51556953e-01
6.58500000e+02	1.51473276e-01
6.59500000e+02	1.51393957e-01
6.60500000e+02	1.51318798e-01
