# Profil de Te au temps 1.500000000000013e-11 
# simu : /Volumes/MERCURE/JOBS/Zeq2_tanh_50mic_7p5e19_B0_20ps/GNU/Te@y-c.set
# col 0 : abscisse (um)
# col 1 : Te (keV)
5.00000000e-01	9.87436714e-01
1.50000000e+00	9.87434384e-01
2.50000000e+00	9.87429781e-01
3.50000000e+00	9.87422878e-01
4.50000000e+00	9.87413658e-01
5.50000000e+00	9.87402135e-01
6.50000000e+00	9.87388308e-01
7.50000000e+00	9.87372179e-01
8.50000000e+00	9.87353748e-01
9.50000000e+00	9.87333015e-01
1.05000000e+01	9.87309983e-01
1.15000000e+01	9.87284652e-01
1.25000000e+01	9.87257023e-01
1.35000000e+01	9.87227098e-01
1.45000000e+01	9.87194878e-01
1.55000000e+01	9.87160365e-01
1.65000000e+01	9.87123561e-01
1.75000000e+01	9.87084467e-01
1.85000000e+01	9.87043085e-01
1.95000000e+01	9.86999418e-01
2.05000000e+01	9.86953467e-01
2.15000000e+01	9.86905235e-01
2.25000000e+01	9.86854723e-01
2.35000000e+01	9.86801935e-01
2.45000000e+01	9.86746873e-01
2.55000000e+01	9.86689540e-01
2.65000000e+01	9.86629939e-01
2.75000000e+01	9.86568071e-01
2.85000000e+01	9.86503941e-01
2.95000000e+01	9.86437552e-01
3.05000000e+01	9.86368906e-01
3.15000000e+01	9.86298006e-01
3.25000000e+01	9.86224858e-01
3.35000000e+01	9.86149463e-01
3.45000000e+01	9.86071825e-01
3.55000000e+01	9.85991949e-01
3.65000000e+01	9.85909837e-01
3.75000000e+01	9.85825494e-01
3.85000000e+01	9.85738924e-01
3.95000000e+01	9.85650130e-01
4.05000000e+01	9.85559118e-01
4.15000000e+01	9.85465891e-01
4.25000000e+01	9.85370453e-01
4.35000000e+01	9.85272809e-01
4.45000000e+01	9.85172964e-01
4.55000000e+01	9.85070922e-01
4.65000000e+01	9.84966688e-01
4.75000000e+01	9.84860266e-01
4.85000000e+01	9.84751662e-01
4.95000000e+01	9.84640880e-01
5.05000000e+01	9.84527926e-01
5.15000000e+01	9.84412804e-01
5.25000000e+01	9.84295520e-01
5.35000000e+01	9.84176079e-01
5.45000000e+01	9.84054486e-01
5.55000000e+01	9.83930748e-01
5.65000000e+01	9.83804868e-01
5.75000000e+01	9.83676853e-01
5.85000000e+01	9.83546709e-01
5.95000000e+01	9.83414441e-01
6.05000000e+01	9.83280055e-01
6.15000000e+01	9.83143557e-01
6.25000000e+01	9.83004952e-01
6.35000000e+01	9.82864247e-01
6.45000000e+01	9.82721447e-01
6.55000000e+01	9.82576560e-01
6.65000000e+01	9.82429590e-01
6.75000000e+01	9.82280544e-01
6.85000000e+01	9.82129429e-01
6.95000000e+01	9.81976250e-01
7.05000000e+01	9.81821014e-01
7.15000000e+01	9.81663727e-01
7.25000000e+01	9.81504397e-01
7.35000000e+01	9.81343028e-01
7.45000000e+01	9.81179629e-01
7.55000000e+01	9.81014204e-01
7.65000000e+01	9.80846762e-01
7.75000000e+01	9.80677309e-01
7.85000000e+01	9.80505851e-01
7.95000000e+01	9.80332395e-01
8.05000000e+01	9.80156948e-01
8.15000000e+01	9.79979517e-01
8.25000000e+01	9.79800108e-01
8.35000000e+01	9.79618729e-01
8.45000000e+01	9.79435385e-01
8.55000000e+01	9.79250085e-01
8.65000000e+01	9.79062836e-01
8.75000000e+01	9.78873643e-01
8.85000000e+01	9.78682514e-01
8.95000000e+01	9.78489456e-01
9.05000000e+01	9.78294476e-01
9.15000000e+01	9.78097580e-01
9.25000000e+01	9.77898777e-01
9.35000000e+01	9.77698073e-01
9.45000000e+01	9.77495475e-01
9.55000000e+01	9.77290989e-01
9.65000000e+01	9.77084624e-01
9.75000000e+01	9.76876386e-01
9.85000000e+01	9.76666281e-01
9.95000000e+01	9.76454318e-01
1.00500000e+02	9.76240503e-01
1.01500000e+02	9.76024843e-01
1.02500000e+02	9.75807344e-01
1.03500000e+02	9.75588015e-01
1.04500000e+02	9.75366862e-01
1.05500000e+02	9.75143891e-01
1.06500000e+02	9.74919111e-01
1.07500000e+02	9.74692526e-01
1.08500000e+02	9.74464146e-01
1.09500000e+02	9.74233975e-01
1.10500000e+02	9.74002022e-01
1.11500000e+02	9.73768292e-01
1.12500000e+02	9.73532793e-01
1.13500000e+02	9.73295531e-01
1.14500000e+02	9.73056513e-01
1.15500000e+02	9.72815745e-01
1.16500000e+02	9.72573234e-01
1.17500000e+02	9.72328986e-01
1.18500000e+02	9.72083009e-01
1.19500000e+02	9.71835307e-01
1.20500000e+02	9.71585888e-01
1.21500000e+02	9.71334758e-01
1.22500000e+02	9.71081923e-01
1.23500000e+02	9.70827389e-01
1.24500000e+02	9.70571162e-01
1.25500000e+02	9.70313248e-01
1.26500000e+02	9.70053653e-01
1.27500000e+02	9.69792383e-01
1.28500000e+02	9.69529444e-01
1.29500000e+02	9.69264841e-01
1.30500000e+02	9.68998580e-01
1.31500000e+02	9.68730667e-01
1.32500000e+02	9.68461106e-01
1.33500000e+02	9.68189903e-01
1.34500000e+02	9.67917063e-01
1.35500000e+02	9.67642592e-01
1.36500000e+02	9.67366494e-01
1.37500000e+02	9.67088774e-01
1.38500000e+02	9.66809438e-01
1.39500000e+02	9.66528489e-01
1.40500000e+02	9.66245932e-01
1.41500000e+02	9.65961772e-01
1.42500000e+02	9.65676012e-01
1.43500000e+02	9.65388658e-01
1.44500000e+02	9.65099713e-01
1.45500000e+02	9.64809180e-01
1.46500000e+02	9.64517065e-01
1.47500000e+02	9.64223370e-01
1.48500000e+02	9.63928098e-01
1.49500000e+02	9.63631254e-01
1.50500000e+02	9.63332839e-01
1.51500000e+02	9.63032858e-01
1.52500000e+02	9.62731313e-01
1.53500000e+02	9.62428207e-01
1.54500000e+02	9.62123542e-01
1.55500000e+02	9.61817320e-01
1.56500000e+02	9.61509544e-01
1.57500000e+02	9.61200216e-01
1.58500000e+02	9.60889337e-01
1.59500000e+02	9.60576908e-01
1.60500000e+02	9.60262933e-01
1.61500000e+02	9.59947410e-01
1.62500000e+02	9.59630342e-01
1.63500000e+02	9.59311730e-01
1.64500000e+02	9.58991573e-01
1.65500000e+02	9.58669872e-01
1.66500000e+02	9.58346628e-01
1.67500000e+02	9.58021840e-01
1.68500000e+02	9.57695507e-01
1.69500000e+02	9.57367630e-01
1.70500000e+02	9.57038207e-01
1.71500000e+02	9.56707237e-01
1.72500000e+02	9.56374720e-01
1.73500000e+02	9.56040652e-01
1.74500000e+02	9.55705034e-01
1.75500000e+02	9.55367861e-01
1.76500000e+02	9.55029133e-01
1.77500000e+02	9.54688846e-01
1.78500000e+02	9.54346998e-01
1.79500000e+02	9.54003585e-01
1.80500000e+02	9.53658603e-01
1.81500000e+02	9.53312049e-01
1.82500000e+02	9.52963920e-01
1.83500000e+02	9.52614209e-01
1.84500000e+02	9.52262913e-01
1.85500000e+02	9.51910026e-01
1.86500000e+02	9.51555543e-01
1.87500000e+02	9.51199459e-01
1.88500000e+02	9.50841766e-01
1.89500000e+02	9.50482459e-01
1.90500000e+02	9.50121531e-01
1.91500000e+02	9.49758975e-01
1.92500000e+02	9.49394783e-01
1.93500000e+02	9.49028948e-01
1.94500000e+02	9.48661460e-01
1.95500000e+02	9.48292312e-01
1.96500000e+02	9.47921494e-01
1.97500000e+02	9.47548996e-01
1.98500000e+02	9.47174810e-01
1.99500000e+02	9.46798924e-01
2.00500000e+02	9.46421329e-01
2.01500000e+02	9.46042012e-01
2.02500000e+02	9.45660963e-01
2.03500000e+02	9.45278169e-01
2.04500000e+02	9.44893617e-01
2.05500000e+02	9.44507296e-01
2.06500000e+02	9.44119191e-01
2.07500000e+02	9.43729289e-01
2.08500000e+02	9.43337575e-01
2.09500000e+02	9.42944035e-01
2.10500000e+02	9.42548653e-01
2.11500000e+02	9.42151414e-01
2.12500000e+02	9.41752301e-01
2.13500000e+02	9.41351298e-01
2.14500000e+02	9.40948386e-01
2.15500000e+02	9.40543549e-01
2.16500000e+02	9.40136767e-01
2.17500000e+02	9.39728023e-01
2.18500000e+02	9.39317295e-01
2.19500000e+02	9.38904566e-01
2.20500000e+02	9.38489812e-01
2.21500000e+02	9.38073015e-01
2.22500000e+02	9.37654151e-01
2.23500000e+02	9.37233198e-01
2.24500000e+02	9.36810134e-01
2.25500000e+02	9.36384935e-01
2.26500000e+02	9.35957576e-01
2.27500000e+02	9.35528033e-01
2.28500000e+02	9.35096281e-01
2.29500000e+02	9.34662293e-01
2.30500000e+02	9.34226043e-01
2.31500000e+02	9.33787503e-01
2.32500000e+02	9.33346646e-01
2.33500000e+02	9.32903442e-01
2.34500000e+02	9.32457862e-01
2.35500000e+02	9.32009877e-01
2.36500000e+02	9.31559456e-01
2.37500000e+02	9.31106567e-01
2.38500000e+02	9.30651177e-01
2.39500000e+02	9.30193255e-01
2.40500000e+02	9.29732767e-01
2.41500000e+02	9.29269678e-01
2.42500000e+02	9.28803954e-01
2.43500000e+02	9.28335558e-01
2.44500000e+02	9.27864455e-01
2.45500000e+02	9.27390607e-01
2.46500000e+02	9.26913976e-01
2.47500000e+02	9.26434524e-01
2.48500000e+02	9.25952211e-01
2.49500000e+02	9.25466996e-01
2.50500000e+02	9.24978839e-01
2.51500000e+02	9.24487698e-01
2.52500000e+02	9.23993530e-01
2.53500000e+02	9.23496292e-01
2.54500000e+02	9.22995939e-01
2.55500000e+02	9.22492426e-01
2.56500000e+02	9.21985708e-01
2.57500000e+02	9.21475738e-01
2.58500000e+02	9.20962468e-01
2.59500000e+02	9.20445850e-01
2.60500000e+02	9.19925834e-01
2.61500000e+02	9.19402371e-01
2.62500000e+02	9.18875410e-01
2.63500000e+02	9.18344899e-01
2.64500000e+02	9.17810785e-01
2.65500000e+02	9.17273014e-01
2.66500000e+02	9.16731533e-01
2.67500000e+02	9.16186285e-01
2.68500000e+02	9.15637215e-01
2.69500000e+02	9.15084266e-01
2.70500000e+02	9.14527380e-01
2.71500000e+02	9.13966497e-01
2.72500000e+02	9.13401558e-01
2.73500000e+02	9.12832503e-01
2.74500000e+02	9.12259269e-01
2.75500000e+02	9.11681794e-01
2.76500000e+02	9.11100015e-01
2.77500000e+02	9.10513866e-01
2.78500000e+02	9.09923284e-01
2.79500000e+02	9.09328201e-01
2.80500000e+02	9.08728551e-01
2.81500000e+02	9.08124265e-01
2.82500000e+02	9.07515273e-01
2.83500000e+02	9.06901506e-01
2.84500000e+02	9.06282893e-01
2.85500000e+02	9.05659362e-01
2.86500000e+02	9.05030838e-01
2.87500000e+02	9.04397250e-01
2.88500000e+02	9.03758520e-01
2.89500000e+02	9.03114574e-01
2.90500000e+02	9.02465334e-01
2.91500000e+02	9.01810723e-01
2.92500000e+02	9.01150660e-01
2.93500000e+02	9.00485066e-01
2.94500000e+02	8.99813861e-01
2.95500000e+02	8.99136960e-01
2.96500000e+02	8.98454283e-01
2.97500000e+02	8.97765743e-01
2.98500000e+02	8.97071256e-01
2.99500000e+02	8.96370736e-01
3.00500000e+02	8.95664095e-01
3.01500000e+02	8.94951244e-01
3.02500000e+02	8.94232094e-01
3.03500000e+02	8.93506555e-01
3.04500000e+02	8.92774534e-01
3.05500000e+02	8.92035939e-01
3.06500000e+02	8.91290676e-01
3.07500000e+02	8.90538650e-01
3.08500000e+02	8.89779765e-01
3.09500000e+02	8.89013922e-01
3.10500000e+02	8.88241025e-01
3.11500000e+02	8.87460973e-01
3.12500000e+02	8.86673666e-01
3.13500000e+02	8.85879002e-01
3.14500000e+02	8.85076878e-01
3.15500000e+02	8.84267189e-01
3.16500000e+02	8.83449831e-01
3.17500000e+02	8.82624698e-01
3.18500000e+02	8.81791680e-01
3.19500000e+02	8.80950670e-01
3.20500000e+02	8.80101557e-01
3.21500000e+02	8.79244231e-01
3.22500000e+02	8.78378578e-01
3.23500000e+02	8.77504486e-01
3.24500000e+02	8.76621838e-01
3.25500000e+02	8.75730520e-01
3.26500000e+02	8.74830413e-01
3.27500000e+02	8.73921400e-01
3.28500000e+02	8.73003360e-01
3.29500000e+02	8.72076172e-01
3.30500000e+02	8.71139715e-01
3.31500000e+02	8.70193864e-01
3.32500000e+02	8.69238494e-01
3.33500000e+02	8.68273481e-01
3.34500000e+02	8.67298695e-01
3.35500000e+02	8.66314010e-01
3.36500000e+02	8.65319294e-01
3.37500000e+02	8.64314418e-01
3.38500000e+02	8.63299248e-01
3.39500000e+02	8.62273651e-01
3.40500000e+02	8.61237493e-01
3.41500000e+02	8.60190636e-01
3.42500000e+02	8.59132944e-01
3.43500000e+02	8.58064279e-01
3.44500000e+02	8.56984499e-01
3.45500000e+02	8.55893465e-01
3.46500000e+02	8.54791034e-01
3.47500000e+02	8.53677063e-01
3.48500000e+02	8.52551406e-01
3.49500000e+02	8.51413919e-01
3.50500000e+02	8.50264453e-01
3.51500000e+02	8.49102861e-01
3.52500000e+02	8.47928993e-01
3.53500000e+02	8.46742699e-01
3.54500000e+02	8.45543828e-01
3.55500000e+02	8.44332225e-01
3.56500000e+02	8.43107738e-01
3.57500000e+02	8.41870212e-01
3.58500000e+02	8.40619491e-01
3.59500000e+02	8.39355418e-01
3.60500000e+02	8.38077835e-01
3.61500000e+02	8.36786583e-01
3.62500000e+02	8.35481503e-01
3.63500000e+02	8.34162434e-01
3.64500000e+02	8.32829215e-01
3.65500000e+02	8.31481682e-01
3.66500000e+02	8.30119675e-01
3.67500000e+02	8.28743028e-01
3.68500000e+02	8.27351577e-01
3.69500000e+02	8.25945157e-01
3.70500000e+02	8.24523604e-01
3.71500000e+02	8.23086749e-01
3.72500000e+02	8.21634428e-01
3.73500000e+02	8.20166473e-01
3.74500000e+02	8.18682717e-01
3.75500000e+02	8.17182991e-01
3.76500000e+02	8.15667129e-01
3.77500000e+02	8.14134962e-01
3.78500000e+02	8.12586323e-01
3.79500000e+02	8.11021042e-01
3.80500000e+02	8.09438952e-01
3.81500000e+02	8.07839885e-01
3.82500000e+02	8.06223674e-01
3.83500000e+02	8.04590150e-01
3.84500000e+02	8.02939148e-01
3.85500000e+02	8.01270500e-01
3.86500000e+02	7.99584041e-01
3.87500000e+02	7.97879605e-01
3.88500000e+02	7.96157028e-01
3.89500000e+02	7.94416146e-01
3.90500000e+02	7.92656797e-01
3.91500000e+02	7.90878819e-01
3.92500000e+02	7.89082051e-01
3.93500000e+02	7.87266336e-01
3.94500000e+02	7.85431514e-01
3.95500000e+02	7.83577431e-01
3.96500000e+02	7.81703932e-01
3.97500000e+02	7.79810863e-01
3.98500000e+02	7.77898075e-01
3.99500000e+02	7.75965419e-01
4.00500000e+02	7.74012748e-01
4.01500000e+02	7.72039918e-01
4.02500000e+02	7.70046788e-01
4.03500000e+02	7.68033217e-01
4.04500000e+02	7.65999071e-01
4.05500000e+02	7.63944215e-01
4.06500000e+02	7.61868519e-01
4.07500000e+02	7.59771854e-01
4.08500000e+02	7.57654098e-01
4.09500000e+02	7.55515130e-01
4.10500000e+02	7.53354832e-01
4.11500000e+02	7.51173090e-01
4.12500000e+02	7.48969796e-01
4.13500000e+02	7.46744845e-01
4.14500000e+02	7.44498134e-01
4.15500000e+02	7.42229566e-01
4.16500000e+02	7.39939050e-01
4.17500000e+02	7.37626498e-01
4.18500000e+02	7.35291826e-01
4.19500000e+02	7.32934957e-01
4.20500000e+02	7.30555817e-01
4.21500000e+02	7.28154338e-01
4.22500000e+02	7.25730459e-01
4.23500000e+02	7.23284122e-01
4.24500000e+02	7.20815276e-01
4.25500000e+02	7.18323876e-01
4.26500000e+02	7.15809882e-01
4.27500000e+02	7.13273260e-01
4.28500000e+02	7.10713984e-01
4.29500000e+02	7.08132033e-01
4.30500000e+02	7.05527391e-01
4.31500000e+02	7.02900052e-01
4.32500000e+02	7.00250014e-01
4.33500000e+02	6.97577282e-01
4.34500000e+02	6.94881870e-01
4.35500000e+02	6.92163797e-01
4.36500000e+02	6.89423090e-01
4.37500000e+02	6.86659783e-01
4.38500000e+02	6.83873917e-01
4.39500000e+02	6.81065541e-01
4.40500000e+02	6.78234712e-01
4.41500000e+02	6.75381493e-01
4.42500000e+02	6.72505957e-01
4.43500000e+02	6.69608183e-01
4.44500000e+02	6.66688258e-01
4.45500000e+02	6.63746277e-01
4.46500000e+02	6.60782345e-01
4.47500000e+02	6.57796572e-01
4.48500000e+02	6.54789078e-01
4.49500000e+02	6.51759990e-01
4.50500000e+02	6.48709446e-01
4.51500000e+02	6.45637589e-01
4.52500000e+02	6.42544572e-01
4.53500000e+02	6.39430557e-01
4.54500000e+02	6.36295713e-01
4.55500000e+02	6.33140219e-01
4.56500000e+02	6.29964261e-01
4.57500000e+02	6.26768036e-01
4.58500000e+02	6.23551749e-01
4.59500000e+02	6.20315612e-01
4.60500000e+02	6.17059849e-01
4.61500000e+02	6.13784690e-01
4.62500000e+02	6.10490376e-01
4.63500000e+02	6.07177158e-01
4.64500000e+02	6.03845294e-01
4.65500000e+02	6.00495053e-01
4.66500000e+02	5.97126713e-01
4.67500000e+02	5.93740563e-01
4.68500000e+02	5.90336899e-01
4.69500000e+02	5.86916030e-01
4.70500000e+02	5.83478273e-01
4.71500000e+02	5.80023957e-01
4.72500000e+02	5.76553421e-01
4.73500000e+02	5.73067014e-01
4.74500000e+02	5.69565097e-01
4.75500000e+02	5.66048041e-01
4.76500000e+02	5.62516230e-01
4.77500000e+02	5.58970058e-01
4.78500000e+02	5.55409932e-01
4.79500000e+02	5.51836271e-01
4.80500000e+02	5.48249506e-01
4.81500000e+02	5.44650083e-01
4.82500000e+02	5.41038458e-01
4.83500000e+02	5.37415102e-01
4.84500000e+02	5.33780501e-01
4.85500000e+02	5.30135153e-01
4.86500000e+02	5.26479571e-01
4.87500000e+02	5.22814285e-01
4.88500000e+02	5.19139837e-01
4.89500000e+02	5.15456787e-01
4.90500000e+02	5.11765711e-01
4.91500000e+02	5.08067198e-01
4.92500000e+02	5.04361858e-01
4.93500000e+02	5.00650315e-01
4.94500000e+02	4.96933211e-01
4.95500000e+02	4.93211206e-01
4.96500000e+02	4.89484977e-01
4.97500000e+02	4.85755220e-01
4.98500000e+02	4.82022649e-01
4.99500000e+02	4.78287994e-01
5.00500000e+02	4.74552008e-01
5.01500000e+02	4.70815458e-01
5.02500000e+02	4.67079133e-01
5.03500000e+02	4.63343838e-01
5.04500000e+02	4.59610399e-01
5.05500000e+02	4.55879659e-01
5.06500000e+02	4.52152477e-01
5.07500000e+02	4.48429734e-01
5.08500000e+02	4.44712325e-01
5.09500000e+02	4.41001164e-01
5.10500000e+02	4.37297179e-01
5.11500000e+02	4.33601315e-01
5.12500000e+02	4.29914532e-01
5.13500000e+02	4.26237804e-01
5.14500000e+02	4.22572118e-01
5.15500000e+02	4.18918472e-01
5.16500000e+02	4.15277875e-01
5.17500000e+02	4.11651347e-01
5.18500000e+02	4.08039914e-01
5.19500000e+02	4.04444610e-01
5.20500000e+02	4.00866474e-01
5.21500000e+02	3.97306546e-01
5.22500000e+02	3.93765870e-01
5.23500000e+02	3.90245489e-01
5.24500000e+02	3.86746443e-01
5.25500000e+02	3.83269767e-01
5.26500000e+02	3.79816491e-01
5.27500000e+02	3.76387635e-01
5.28500000e+02	3.72984209e-01
5.29500000e+02	3.69607208e-01
5.30500000e+02	3.66257613e-01
5.31500000e+02	3.62936387e-01
5.32500000e+02	3.59644473e-01
5.33500000e+02	3.56382791e-01
5.34500000e+02	3.53152236e-01
5.35500000e+02	3.49953678e-01
5.36500000e+02	3.46787956e-01
5.37500000e+02	3.43655881e-01
5.38500000e+02	3.40558226e-01
5.39500000e+02	3.37495735e-01
5.40500000e+02	3.34469112e-01
5.41500000e+02	3.31479023e-01
5.42500000e+02	3.28526095e-01
5.43500000e+02	3.25610915e-01
5.44500000e+02	3.22734027e-01
5.45500000e+02	3.19895932e-01
5.46500000e+02	3.17097087e-01
5.47500000e+02	3.14337903e-01
5.48500000e+02	3.11618750e-01
5.49500000e+02	3.08939949e-01
5.50500000e+02	3.06301776e-01
5.51500000e+02	3.03704464e-01
5.52500000e+02	3.01148198e-01
5.53500000e+02	2.98633121e-01
5.54500000e+02	2.96159329e-01
5.55500000e+02	2.93726877e-01
5.56500000e+02	2.91335777e-01
5.57500000e+02	2.88985999e-01
5.58500000e+02	2.86677473e-01
5.59500000e+02	2.84410089e-01
5.60500000e+02	2.82183700e-01
5.61500000e+02	2.79998124e-01
5.62500000e+02	2.77853142e-01
5.63500000e+02	2.75748503e-01
5.64500000e+02	2.73683925e-01
5.65500000e+02	2.71659096e-01
5.66500000e+02	2.69673675e-01
5.67500000e+02	2.67727297e-01
5.68500000e+02	2.65819569e-01
5.69500000e+02	2.63950080e-01
5.70500000e+02	2.62118395e-01
5.71500000e+02	2.60324059e-01
5.72500000e+02	2.58566603e-01
5.73500000e+02	2.56845539e-01
5.74500000e+02	2.55160367e-01
5.75500000e+02	2.53510575e-01
5.76500000e+02	2.51895637e-01
5.77500000e+02	2.50315022e-01
5.78500000e+02	2.48768187e-01
5.79500000e+02	2.47254585e-01
5.80500000e+02	2.45773663e-01
5.81500000e+02	2.44324864e-01
5.82500000e+02	2.42907629e-01
5.83500000e+02	2.41521397e-01
5.84500000e+02	2.40165606e-01
5.85500000e+02	2.38839694e-01
5.86500000e+02	2.37543102e-01
5.87500000e+02	2.36275273e-01
5.88500000e+02	2.35035651e-01
5.89500000e+02	2.33823685e-01
5.90500000e+02	2.32638831e-01
5.91500000e+02	2.31480545e-01
5.92500000e+02	2.30348294e-01
5.93500000e+02	2.29241546e-01
5.94500000e+02	2.28159779e-01
5.95500000e+02	2.27102478e-01
5.96500000e+02	2.26069133e-01
5.97500000e+02	2.25059245e-01
5.98500000e+02	2.24072319e-01
5.99500000e+02	2.23107872e-01
6.00500000e+02	2.22165426e-01
6.01500000e+02	2.21244515e-01
6.02500000e+02	2.20344679e-01
6.03500000e+02	2.19465468e-01
6.04500000e+02	2.18606441e-01
6.05500000e+02	2.17767164e-01
6.06500000e+02	2.16947215e-01
6.07500000e+02	2.16146178e-01
6.08500000e+02	2.15363648e-01
6.09500000e+02	2.14599228e-01
6.10500000e+02	2.13852530e-01
6.11500000e+02	2.13123174e-01
6.12500000e+02	2.12410790e-01
6.13500000e+02	2.11715016e-01
6.14500000e+02	2.11035499e-01
6.15500000e+02	2.10371892e-01
6.16500000e+02	2.09723858e-01
6.17500000e+02	2.09091070e-01
6.18500000e+02	2.08473205e-01
6.19500000e+02	2.07869951e-01
6.20500000e+02	2.07281002e-01
6.21500000e+02	2.06706059e-01
6.22500000e+02	2.06144833e-01
6.23500000e+02	2.05597039e-01
6.24500000e+02	2.05062401e-01
6.25500000e+02	2.04540650e-01
6.26500000e+02	2.04031522e-01
6.27500000e+02	2.03534760e-01
6.28500000e+02	2.03050115e-01
6.29500000e+02	2.02577343e-01
6.30500000e+02	2.02116206e-01
6.31500000e+02	2.01666471e-01
6.32500000e+02	2.01227913e-01
6.33500000e+02	2.00800311e-01
6.34500000e+02	2.00383449e-01
6.35500000e+02	1.99977117e-01
6.36500000e+02	1.99581110e-01
6.37500000e+02	1.99195228e-01
6.38500000e+02	1.98819276e-01
6.39500000e+02	1.98453063e-01
6.40500000e+02	1.98096402e-01
6.41500000e+02	1.97749113e-01
6.42500000e+02	1.97411017e-01
6.43500000e+02	1.97081941e-01
6.44500000e+02	1.96761716e-01
6.45500000e+02	1.96450177e-01
6.46500000e+02	1.96147160e-01
6.47500000e+02	1.95852510e-01
6.48500000e+02	1.95566070e-01
6.49500000e+02	1.95287690e-01
6.50500000e+02	1.95017222e-01
6.51500000e+02	1.94754522e-01
6.52500000e+02	1.94499449e-01
6.53500000e+02	1.94251865e-01
6.54500000e+02	1.94011635e-01
6.55500000e+02	1.93778626e-01
6.56500000e+02	1.93552711e-01
6.57500000e+02	1.93333763e-01
6.58500000e+02	1.93121658e-01
6.59500000e+02	1.92916276e-01
6.60500000e+02	1.92717500e-01
