# Profil de Te au temps 1.000000000000012e-11 
# simu : /Volumes/MERCURE/JOBS/Zeq2_tanh_50mic_7p5e19_B0_20ps/GNU/Te@y-c.set
# col 0 : abscisse (um)
# col 1 : Te (keV)
5.00000000e-01	9.99634051e-01
1.50000000e+00	9.99633659e-01
2.50000000e+00	9.99632888e-01
3.50000000e+00	9.99631729e-01
4.50000000e+00	9.99630180e-01
5.50000000e+00	9.99628240e-01
6.50000000e+00	9.99625910e-01
7.50000000e+00	9.99623187e-01
8.50000000e+00	9.99620069e-01
9.50000000e+00	9.99616555e-01
1.05000000e+01	9.99612642e-01
1.15000000e+01	9.99608328e-01
1.25000000e+01	9.99603608e-01
1.35000000e+01	9.99598482e-01
1.45000000e+01	9.99592944e-01
1.55000000e+01	9.99586991e-01
1.65000000e+01	9.99580619e-01
1.75000000e+01	9.99573824e-01
1.85000000e+01	9.99566602e-01
1.95000000e+01	9.99558946e-01
2.05000000e+01	9.99550854e-01
2.15000000e+01	9.99542318e-01
2.25000000e+01	9.99533334e-01
2.35000000e+01	9.99523895e-01
2.45000000e+01	9.99513995e-01
2.55000000e+01	9.99503629e-01
2.65000000e+01	9.99492789e-01
2.75000000e+01	9.99481468e-01
2.85000000e+01	9.99469659e-01
2.95000000e+01	9.99457355e-01
3.05000000e+01	9.99444547e-01
3.15000000e+01	9.99431228e-01
3.25000000e+01	9.99417389e-01
3.35000000e+01	9.99403023e-01
3.45000000e+01	9.99388119e-01
3.55000000e+01	9.99372669e-01
3.65000000e+01	9.99356663e-01
3.75000000e+01	9.99340091e-01
3.85000000e+01	9.99322945e-01
3.95000000e+01	9.99305212e-01
4.05000000e+01	9.99286884e-01
4.15000000e+01	9.99267948e-01
4.25000000e+01	9.99248394e-01
4.35000000e+01	9.99228211e-01
4.45000000e+01	9.99207387e-01
4.55000000e+01	9.99185910e-01
4.65000000e+01	9.99163768e-01
4.75000000e+01	9.99140949e-01
4.85000000e+01	9.99117440e-01
4.95000000e+01	9.99093227e-01
5.05000000e+01	9.99068298e-01
5.15000000e+01	9.99042639e-01
5.25000000e+01	9.99016236e-01
5.35000000e+01	9.98989076e-01
5.45000000e+01	9.98961143e-01
5.55000000e+01	9.98932423e-01
5.65000000e+01	9.98902902e-01
5.75000000e+01	9.98872564e-01
5.85000000e+01	9.98841393e-01
5.95000000e+01	9.98809375e-01
6.05000000e+01	9.98776493e-01
6.15000000e+01	9.98742731e-01
6.25000000e+01	9.98708073e-01
6.35000000e+01	9.98672501e-01
6.45000000e+01	9.98635999e-01
6.55000000e+01	9.98598550e-01
6.65000000e+01	9.98560136e-01
6.75000000e+01	9.98520740e-01
6.85000000e+01	9.98480343e-01
6.95000000e+01	9.98438927e-01
7.05000000e+01	9.98396474e-01
7.15000000e+01	9.98352966e-01
7.25000000e+01	9.98308382e-01
7.35000000e+01	9.98262704e-01
7.45000000e+01	9.98215913e-01
7.55000000e+01	9.98167989e-01
7.65000000e+01	9.98118912e-01
7.75000000e+01	9.98068661e-01
7.85000000e+01	9.98017218e-01
7.95000000e+01	9.97964560e-01
8.05000000e+01	9.97910667e-01
8.15000000e+01	9.97855519e-01
8.25000000e+01	9.97799094e-01
8.35000000e+01	9.97741370e-01
8.45000000e+01	9.97682326e-01
8.55000000e+01	9.97621941e-01
8.65000000e+01	9.97560191e-01
8.75000000e+01	9.97497056e-01
8.85000000e+01	9.97432512e-01
8.95000000e+01	9.97366538e-01
9.05000000e+01	9.97299109e-01
9.15000000e+01	9.97230204e-01
9.25000000e+01	9.97159800e-01
9.35000000e+01	9.97087872e-01
9.45000000e+01	9.97014399e-01
9.55000000e+01	9.96939355e-01
9.65000000e+01	9.96862718e-01
9.75000000e+01	9.96784463e-01
9.85000000e+01	9.96704567e-01
9.95000000e+01	9.96623005e-01
1.00500000e+02	9.96539753e-01
1.01500000e+02	9.96454787e-01
1.02500000e+02	9.96368083e-01
1.03500000e+02	9.96279615e-01
1.04500000e+02	9.96189360e-01
1.05500000e+02	9.96097291e-01
1.06500000e+02	9.96003385e-01
1.07500000e+02	9.95907616e-01
1.08500000e+02	9.95809960e-01
1.09500000e+02	9.95710391e-01
1.10500000e+02	9.95608884e-01
1.11500000e+02	9.95505413e-01
1.12500000e+02	9.95399954e-01
1.13500000e+02	9.95292481e-01
1.14500000e+02	9.95182969e-01
1.15500000e+02	9.95071392e-01
1.16500000e+02	9.94957725e-01
1.17500000e+02	9.94841943e-01
1.18500000e+02	9.94724019e-01
1.19500000e+02	9.94603929e-01
1.20500000e+02	9.94481646e-01
1.21500000e+02	9.94357146e-01
1.22500000e+02	9.94230403e-01
1.23500000e+02	9.94101391e-01
1.24500000e+02	9.93970086e-01
1.25500000e+02	9.93836462e-01
1.26500000e+02	9.93700492e-01
1.27500000e+02	9.93562154e-01
1.28500000e+02	9.93421420e-01
1.29500000e+02	9.93278266e-01
1.30500000e+02	9.93132666e-01
1.31500000e+02	9.92984597e-01
1.32500000e+02	9.92834032e-01
1.33500000e+02	9.92680947e-01
1.34500000e+02	9.92525318e-01
1.35500000e+02	9.92367120e-01
1.36500000e+02	9.92206327e-01
1.37500000e+02	9.92042917e-01
1.38500000e+02	9.91876864e-01
1.39500000e+02	9.91708145e-01
1.40500000e+02	9.91536736e-01
1.41500000e+02	9.91362613e-01
1.42500000e+02	9.91185751e-01
1.43500000e+02	9.91006129e-01
1.44500000e+02	9.90823722e-01
1.45500000e+02	9.90638507e-01
1.46500000e+02	9.90450462e-01
1.47500000e+02	9.90259563e-01
1.48500000e+02	9.90065789e-01
1.49500000e+02	9.89869116e-01
1.50500000e+02	9.89669523e-01
1.51500000e+02	9.89466987e-01
1.52500000e+02	9.89261488e-01
1.53500000e+02	9.89053003e-01
1.54500000e+02	9.88841511e-01
1.55500000e+02	9.88626991e-01
1.56500000e+02	9.88409423e-01
1.57500000e+02	9.88188785e-01
1.58500000e+02	9.87965058e-01
1.59500000e+02	9.87738222e-01
1.60500000e+02	9.87508257e-01
1.61500000e+02	9.87275143e-01
1.62500000e+02	9.87038861e-01
1.63500000e+02	9.86799392e-01
1.64500000e+02	9.86556717e-01
1.65500000e+02	9.86310819e-01
1.66500000e+02	9.86061678e-01
1.67500000e+02	9.85809278e-01
1.68500000e+02	9.85553601e-01
1.69500000e+02	9.85294628e-01
1.70500000e+02	9.85032345e-01
1.71500000e+02	9.84766733e-01
1.72500000e+02	9.84497776e-01
1.73500000e+02	9.84225459e-01
1.74500000e+02	9.83949766e-01
1.75500000e+02	9.83670681e-01
1.76500000e+02	9.83388189e-01
1.77500000e+02	9.83102276e-01
1.78500000e+02	9.82812926e-01
1.79500000e+02	9.82520127e-01
1.80500000e+02	9.82223863e-01
1.81500000e+02	9.81924122e-01
1.82500000e+02	9.81620890e-01
1.83500000e+02	9.81314154e-01
1.84500000e+02	9.81003902e-01
1.85500000e+02	9.80690121e-01
1.86500000e+02	9.80372800e-01
1.87500000e+02	9.80051926e-01
1.88500000e+02	9.79727489e-01
1.89500000e+02	9.79399477e-01
1.90500000e+02	9.79067880e-01
1.91500000e+02	9.78732687e-01
1.92500000e+02	9.78393888e-01
1.93500000e+02	9.78051473e-01
1.94500000e+02	9.77705433e-01
1.95500000e+02	9.77355758e-01
1.96500000e+02	9.77002440e-01
1.97500000e+02	9.76645469e-01
1.98500000e+02	9.76284838e-01
1.99500000e+02	9.75920538e-01
2.00500000e+02	9.75552562e-01
2.01500000e+02	9.75180901e-01
2.02500000e+02	9.74805549e-01
2.03500000e+02	9.74426498e-01
2.04500000e+02	9.74043742e-01
2.05500000e+02	9.73657273e-01
2.06500000e+02	9.73267087e-01
2.07500000e+02	9.72873176e-01
2.08500000e+02	9.72475534e-01
2.09500000e+02	9.72074157e-01
2.10500000e+02	9.71669037e-01
2.11500000e+02	9.71260171e-01
2.12500000e+02	9.70847553e-01
2.13500000e+02	9.70431178e-01
2.14500000e+02	9.70011042e-01
2.15500000e+02	9.69587139e-01
2.16500000e+02	9.69159466e-01
2.17500000e+02	9.68728017e-01
2.18500000e+02	9.68292790e-01
2.19500000e+02	9.67853779e-01
2.20500000e+02	9.67410981e-01
2.21500000e+02	9.66964393e-01
2.22500000e+02	9.66514009e-01
2.23500000e+02	9.66059827e-01
2.24500000e+02	9.65601844e-01
2.25500000e+02	9.65140054e-01
2.26500000e+02	9.64674456e-01
2.27500000e+02	9.64205045e-01
2.28500000e+02	9.63731817e-01
2.29500000e+02	9.63254770e-01
2.30500000e+02	9.62773900e-01
2.31500000e+02	9.62289203e-01
2.32500000e+02	9.61800676e-01
2.33500000e+02	9.61308314e-01
2.34500000e+02	9.60812115e-01
2.35500000e+02	9.60312074e-01
2.36500000e+02	9.59808187e-01
2.37500000e+02	9.59300450e-01
2.38500000e+02	9.58788858e-01
2.39500000e+02	9.58273408e-01
2.40500000e+02	9.57754095e-01
2.41500000e+02	9.57230914e-01
2.42500000e+02	9.56703859e-01
2.43500000e+02	9.56172926e-01
2.44500000e+02	9.55638108e-01
2.45500000e+02	9.55099401e-01
2.46500000e+02	9.54556797e-01
2.47500000e+02	9.54010290e-01
2.48500000e+02	9.53459874e-01
2.49500000e+02	9.52905540e-01
2.50500000e+02	9.52347282e-01
2.51500000e+02	9.51785092e-01
2.52500000e+02	9.51218960e-01
2.53500000e+02	9.50648878e-01
2.54500000e+02	9.50074837e-01
2.55500000e+02	9.49496826e-01
2.56500000e+02	9.48914835e-01
2.57500000e+02	9.48328853e-01
2.58500000e+02	9.47738868e-01
2.59500000e+02	9.47144868e-01
2.60500000e+02	9.46546839e-01
2.61500000e+02	9.45944769e-01
2.62500000e+02	9.45338644e-01
2.63500000e+02	9.44728447e-01
2.64500000e+02	9.44114163e-01
2.65500000e+02	9.43495775e-01
2.66500000e+02	9.42873267e-01
2.67500000e+02	9.42246619e-01
2.68500000e+02	9.41615814e-01
2.69500000e+02	9.40980830e-01
2.70500000e+02	9.40341646e-01
2.71500000e+02	9.39698241e-01
2.72500000e+02	9.39050591e-01
2.73500000e+02	9.38398674e-01
2.74500000e+02	9.37742462e-01
2.75500000e+02	9.37081931e-01
2.76500000e+02	9.36417052e-01
2.77500000e+02	9.35747798e-01
2.78500000e+02	9.35074138e-01
2.79500000e+02	9.34396041e-01
2.80500000e+02	9.33713475e-01
2.81500000e+02	9.33026407e-01
2.82500000e+02	9.32334800e-01
2.83500000e+02	9.31638620e-01
2.84500000e+02	9.30937827e-01
2.85500000e+02	9.30232382e-01
2.86500000e+02	9.29522245e-01
2.87500000e+02	9.28807372e-01
2.88500000e+02	9.28087720e-01
2.89500000e+02	9.27363243e-01
2.90500000e+02	9.26633893e-01
2.91500000e+02	9.25899621e-01
2.92500000e+02	9.25160376e-01
2.93500000e+02	9.24416105e-01
2.94500000e+02	9.23666753e-01
2.95500000e+02	9.22912264e-01
2.96500000e+02	9.22152579e-01
2.97500000e+02	9.21387636e-01
2.98500000e+02	9.20617375e-01
2.99500000e+02	9.19841729e-01
3.00500000e+02	9.19060631e-01
3.01500000e+02	9.18274013e-01
3.02500000e+02	9.17481803e-01
3.03500000e+02	9.16683927e-01
3.04500000e+02	9.15880309e-01
3.05500000e+02	9.15070871e-01
3.06500000e+02	9.14255531e-01
3.07500000e+02	9.13434207e-01
3.08500000e+02	9.12606812e-01
3.09500000e+02	9.11773258e-01
3.10500000e+02	9.10933453e-01
3.11500000e+02	9.10087305e-01
3.12500000e+02	9.09234715e-01
3.13500000e+02	9.08375586e-01
3.14500000e+02	9.07509815e-01
3.15500000e+02	9.06637296e-01
3.16500000e+02	9.05757923e-01
3.17500000e+02	9.04871583e-01
3.18500000e+02	9.03978163e-01
3.19500000e+02	9.03077547e-01
3.20500000e+02	9.02169614e-01
3.21500000e+02	9.01254241e-01
3.22500000e+02	9.00331302e-01
3.23500000e+02	8.99400667e-01
3.24500000e+02	8.98462203e-01
3.25500000e+02	8.97515775e-01
3.26500000e+02	8.96561242e-01
3.27500000e+02	8.95598463e-01
3.28500000e+02	8.94627290e-01
3.29500000e+02	8.93647575e-01
3.30500000e+02	8.92659164e-01
3.31500000e+02	8.91661900e-01
3.32500000e+02	8.90655624e-01
3.33500000e+02	8.89640171e-01
3.34500000e+02	8.88615375e-01
3.35500000e+02	8.87581064e-01
3.36500000e+02	8.86537064e-01
3.37500000e+02	8.85483197e-01
3.38500000e+02	8.84419281e-01
3.39500000e+02	8.83345129e-01
3.40500000e+02	8.82260554e-01
3.41500000e+02	8.81165363e-01
3.42500000e+02	8.80059357e-01
3.43500000e+02	8.78942338e-01
3.44500000e+02	8.77814101e-01
3.45500000e+02	8.76674438e-01
3.46500000e+02	8.75523138e-01
3.47500000e+02	8.74359986e-01
3.48500000e+02	8.73184762e-01
3.49500000e+02	8.71997244e-01
3.50500000e+02	8.70797206e-01
3.51500000e+02	8.69584418e-01
3.52500000e+02	8.68358647e-01
3.53500000e+02	8.67119654e-01
3.54500000e+02	8.65867201e-01
3.55500000e+02	8.64601042e-01
3.56500000e+02	8.63320930e-01
3.57500000e+02	8.62026614e-01
3.58500000e+02	8.60717839e-01
3.59500000e+02	8.59394347e-01
3.60500000e+02	8.58055878e-01
3.61500000e+02	8.56702167e-01
3.62500000e+02	8.55332946e-01
3.63500000e+02	8.53947945e-01
3.64500000e+02	8.52546891e-01
3.65500000e+02	8.51129506e-01
3.66500000e+02	8.49695511e-01
3.67500000e+02	8.48244624e-01
3.68500000e+02	8.46776560e-01
3.69500000e+02	8.45291032e-01
3.70500000e+02	8.43787749e-01
3.71500000e+02	8.42266419e-01
3.72500000e+02	8.40726748e-01
3.73500000e+02	8.39168439e-01
3.74500000e+02	8.37591193e-01
3.75500000e+02	8.35994710e-01
3.76500000e+02	8.34378686e-01
3.77500000e+02	8.32742818e-01
3.78500000e+02	8.31086800e-01
3.79500000e+02	8.29410325e-01
3.80500000e+02	8.27713085e-01
3.81500000e+02	8.25994771e-01
3.82500000e+02	8.24255073e-01
3.83500000e+02	8.22493680e-01
3.84500000e+02	8.20710282e-01
3.85500000e+02	8.18904566e-01
3.86500000e+02	8.17076221e-01
3.87500000e+02	8.15224936e-01
3.88500000e+02	8.13350399e-01
3.89500000e+02	8.11452300e-01
3.90500000e+02	8.09530328e-01
3.91500000e+02	8.07584176e-01
3.92500000e+02	8.05613533e-01
3.93500000e+02	8.03618096e-01
3.94500000e+02	8.01597557e-01
3.95500000e+02	7.99551616e-01
3.96500000e+02	7.97479971e-01
3.97500000e+02	7.95382323e-01
3.98500000e+02	7.93258378e-01
3.99500000e+02	7.91107844e-01
4.00500000e+02	7.88930430e-01
4.01500000e+02	7.86725851e-01
4.02500000e+02	7.84493826e-01
4.03500000e+02	7.82234078e-01
4.04500000e+02	7.79946334e-01
4.05500000e+02	7.77630325e-01
4.06500000e+02	7.75285789e-01
4.07500000e+02	7.72912468e-01
4.08500000e+02	7.70510112e-01
4.09500000e+02	7.68078475e-01
4.10500000e+02	7.65617319e-01
4.11500000e+02	7.63126412e-01
4.12500000e+02	7.60605530e-01
4.13500000e+02	7.58054456e-01
4.14500000e+02	7.55472983e-01
4.15500000e+02	7.52860908e-01
4.16500000e+02	7.50218043e-01
4.17500000e+02	7.47544204e-01
4.18500000e+02	7.44839218e-01
4.19500000e+02	7.42102924e-01
4.20500000e+02	7.39335170e-01
4.21500000e+02	7.36535813e-01
4.22500000e+02	7.33704723e-01
4.23500000e+02	7.30841783e-01
4.24500000e+02	7.27946884e-01
4.25500000e+02	7.25019932e-01
4.26500000e+02	7.22060845e-01
4.27500000e+02	7.19069553e-01
4.28500000e+02	7.16046002e-01
4.29500000e+02	7.12990149e-01
4.30500000e+02	7.09901966e-01
4.31500000e+02	7.06781440e-01
4.32500000e+02	7.03628572e-01
4.33500000e+02	7.00443378e-01
4.34500000e+02	6.97225889e-01
4.35500000e+02	6.93976154e-01
4.36500000e+02	6.90694234e-01
4.37500000e+02	6.87380210e-01
4.38500000e+02	6.84034178e-01
4.39500000e+02	6.80656249e-01
4.40500000e+02	6.77246555e-01
4.41500000e+02	6.73805240e-01
4.42500000e+02	6.70332470e-01
4.43500000e+02	6.66828427e-01
4.44500000e+02	6.63293310e-01
4.45500000e+02	6.59727336e-01
4.46500000e+02	6.56130741e-01
4.47500000e+02	6.52503779e-01
4.48500000e+02	6.48846721e-01
4.49500000e+02	6.45159859e-01
4.50500000e+02	6.41443501e-01
4.51500000e+02	6.37697975e-01
4.52500000e+02	6.33923627e-01
4.53500000e+02	6.30120823e-01
4.54500000e+02	6.26289947e-01
4.55500000e+02	6.22431401e-01
4.56500000e+02	6.18545608e-01
4.57500000e+02	6.14633008e-01
4.58500000e+02	6.10694061e-01
4.59500000e+02	6.06729247e-01
4.60500000e+02	6.02739062e-01
4.61500000e+02	5.98724026e-01
4.62500000e+02	5.94684674e-01
4.63500000e+02	5.90621563e-01
4.64500000e+02	5.86535268e-01
4.65500000e+02	5.82426384e-01
4.66500000e+02	5.78295526e-01
4.67500000e+02	5.74143329e-01
4.68500000e+02	5.69970447e-01
4.69500000e+02	5.65777555e-01
4.70500000e+02	5.61565349e-01
4.71500000e+02	5.57334544e-01
4.72500000e+02	5.53085876e-01
4.73500000e+02	5.48820104e-01
4.74500000e+02	5.44538006e-01
4.75500000e+02	5.40240384e-01
4.76500000e+02	5.35928061e-01
4.77500000e+02	5.31601881e-01
4.78500000e+02	5.27262713e-01
4.79500000e+02	5.22911448e-01
4.80500000e+02	5.18549001e-01
4.81500000e+02	5.14176312e-01
4.82500000e+02	5.09794343e-01
4.83500000e+02	5.05404082e-01
4.84500000e+02	5.01006542e-01
4.85500000e+02	4.96602763e-01
4.86500000e+02	4.92193808e-01
4.87500000e+02	4.87780769e-01
4.88500000e+02	4.83364762e-01
4.89500000e+02	4.78946930e-01
4.90500000e+02	4.74528445e-01
4.91500000e+02	4.70110503e-01
4.92500000e+02	4.65694327e-01
4.93500000e+02	4.61281167e-01
4.94500000e+02	4.56872300e-01
4.95500000e+02	4.52469027e-01
4.96500000e+02	4.48072676e-01
4.97500000e+02	4.43684598e-01
4.98500000e+02	4.39306168e-01
4.99500000e+02	4.34938784e-01
5.00500000e+02	4.30583865e-01
5.01500000e+02	4.26242850e-01
5.02500000e+02	4.21917195e-01
5.03500000e+02	4.17608374e-01
5.04500000e+02	4.13317873e-01
5.05500000e+02	4.09047193e-01
5.06500000e+02	4.04797841e-01
5.07500000e+02	4.00571334e-01
5.08500000e+02	3.96369189e-01
5.09500000e+02	3.92192926e-01
5.10500000e+02	3.88044063e-01
5.11500000e+02	3.83924107e-01
5.12500000e+02	3.79834561e-01
5.13500000e+02	3.75776910e-01
5.14500000e+02	3.71752623e-01
5.15500000e+02	3.67763145e-01
5.16500000e+02	3.63809898e-01
5.17500000e+02	3.59894271e-01
5.18500000e+02	3.56017621e-01
5.19500000e+02	3.52181266e-01
5.20500000e+02	3.48386479e-01
5.21500000e+02	3.44634490e-01
5.22500000e+02	3.40926477e-01
5.23500000e+02	3.37263563e-01
5.24500000e+02	3.33646816e-01
5.25500000e+02	3.30077240e-01
5.26500000e+02	3.26555778e-01
5.27500000e+02	3.23083305e-01
5.28500000e+02	3.19660627e-01
5.29500000e+02	3.16288480e-01
5.30500000e+02	3.12967525e-01
5.31500000e+02	3.09698352e-01
5.32500000e+02	3.06481473e-01
5.33500000e+02	3.03317327e-01
5.34500000e+02	3.00206274e-01
5.35500000e+02	2.97148599e-01
5.36500000e+02	2.94144514e-01
5.37500000e+02	2.91194154e-01
5.38500000e+02	2.88297580e-01
5.39500000e+02	2.85454783e-01
5.40500000e+02	2.82665683e-01
5.41500000e+02	2.79930132e-01
5.42500000e+02	2.77247916e-01
5.43500000e+02	2.74618759e-01
5.44500000e+02	2.72042324e-01
5.45500000e+02	2.69518216e-01
5.46500000e+02	2.67045986e-01
5.47500000e+02	2.64625134e-01
5.48500000e+02	2.62255111e-01
5.49500000e+02	2.59935325e-01
5.50500000e+02	2.57665142e-01
5.51500000e+02	2.55443889e-01
5.52500000e+02	2.53270859e-01
5.53500000e+02	2.51145316e-01
5.54500000e+02	2.49066491e-01
5.55500000e+02	2.47033595e-01
5.56500000e+02	2.45045814e-01
5.57500000e+02	2.43102317e-01
5.58500000e+02	2.41202256e-01
5.59500000e+02	2.39344770e-01
5.60500000e+02	2.37528988e-01
5.61500000e+02	2.35754030e-01
5.62500000e+02	2.34019010e-01
5.63500000e+02	2.32323041e-01
5.64500000e+02	2.30665231e-01
5.65500000e+02	2.29044691e-01
5.66500000e+02	2.27460533e-01
5.67500000e+02	2.25911874e-01
5.68500000e+02	2.24397836e-01
5.69500000e+02	2.22917547e-01
5.70500000e+02	2.21470145e-01
5.71500000e+02	2.20054775e-01
5.72500000e+02	2.18670594e-01
5.73500000e+02	2.17316769e-01
5.74500000e+02	2.15992481e-01
5.75500000e+02	2.14696922e-01
5.76500000e+02	2.13429297e-01
5.77500000e+02	2.12188828e-01
5.78500000e+02	2.10974747e-01
5.79500000e+02	2.09786305e-01
5.80500000e+02	2.08622767e-01
5.81500000e+02	2.07483412e-01
5.82500000e+02	2.06367536e-01
5.83500000e+02	2.05274452e-01
5.84500000e+02	2.04203487e-01
5.85500000e+02	2.03153985e-01
5.86500000e+02	2.02125308e-01
5.87500000e+02	2.01116832e-01
5.88500000e+02	2.00127950e-01
5.89500000e+02	1.99158073e-01
5.90500000e+02	1.98206627e-01
5.91500000e+02	1.97273053e-01
5.92500000e+02	1.96356812e-01
5.93500000e+02	1.95457378e-01
5.94500000e+02	1.94574243e-01
5.95500000e+02	1.93706914e-01
5.96500000e+02	1.92854916e-01
5.97500000e+02	1.92017788e-01
5.98500000e+02	1.91195085e-01
5.99500000e+02	1.90386379e-01
6.00500000e+02	1.89591258e-01
6.01500000e+02	1.88809325e-01
6.02500000e+02	1.88040199e-01
6.03500000e+02	1.87283513e-01
6.04500000e+02	1.86538916e-01
6.05500000e+02	1.85806075e-01
6.06500000e+02	1.85084668e-01
6.07500000e+02	1.84374391e-01
6.08500000e+02	1.83674953e-01
6.09500000e+02	1.82986079e-01
6.10500000e+02	1.82307507e-01
6.11500000e+02	1.81638992e-01
6.12500000e+02	1.80980299e-01
6.13500000e+02	1.80331211e-01
6.14500000e+02	1.79691525e-01
6.15500000e+02	1.79061048e-01
6.16500000e+02	1.78439600e-01
6.17500000e+02	1.77827019e-01
6.18500000e+02	1.77223150e-01
6.19500000e+02	1.76627853e-01
6.20500000e+02	1.76041004e-01
6.21500000e+02	1.75462483e-01
6.22500000e+02	1.74892180e-01
6.23500000e+02	1.74330013e-01
6.24500000e+02	1.73775888e-01
6.25500000e+02	1.73229744e-01
6.26500000e+02	1.72691479e-01
6.27500000e+02	1.72161068e-01
6.28500000e+02	1.71638456e-01
6.29500000e+02	1.71123609e-01
6.30500000e+02	1.70616495e-01
6.31500000e+02	1.70117078e-01
6.32500000e+02	1.69625358e-01
6.33500000e+02	1.69141304e-01
6.34500000e+02	1.68664922e-01
6.35500000e+02	1.68196203e-01
6.36500000e+02	1.67735148e-01
6.37500000e+02	1.67281767e-01
6.38500000e+02	1.66836058e-01
6.39500000e+02	1.66398047e-01
6.40500000e+02	1.65967727e-01
6.41500000e+02	1.65545132e-01
6.42500000e+02	1.65130258e-01
6.43500000e+02	1.64723138e-01
6.44500000e+02	1.64323770e-01
6.45500000e+02	1.63932185e-01
6.46500000e+02	1.63548382e-01
6.47500000e+02	1.63172388e-01
6.48500000e+02	1.62804202e-01
6.49500000e+02	1.62443843e-01
6.50500000e+02	1.62091309e-01
6.51500000e+02	1.61746614e-01
6.52500000e+02	1.61409750e-01
6.53500000e+02	1.61080726e-01
6.54500000e+02	1.60759529e-01
6.55500000e+02	1.60446160e-01
6.56500000e+02	1.60140601e-01
6.57500000e+02	1.59842846e-01
6.58500000e+02	1.59552869e-01
6.59500000e+02	1.59270660e-01
6.60500000e+02	1.58996186e-01
