# Profil de Te au temps 2.009999999999998e-12 
# simu : /Volumes/MERCURE/JOBS/Zeq2_tanh_50mic_7p5e19_B0_20ps/GNU/Te@y-c.set
# col 0 : abscisse (um)
# col 1 : Te (keV)
5.00000000e-01	9.99999962e-01
1.50000000e+00	9.99999958e-01
2.50000000e+00	9.99999960e-01
3.50000000e+00	9.99999961e-01
4.50000000e+00	9.99999961e-01
5.50000000e+00	9.99999961e-01
6.50000000e+00	9.99999960e-01
7.50000000e+00	9.99999959e-01
8.50000000e+00	9.99999958e-01
9.50000000e+00	9.99999957e-01
1.05000000e+01	9.99999956e-01
1.15000000e+01	9.99999954e-01
1.25000000e+01	9.99999953e-01
1.35000000e+01	9.99999951e-01
1.45000000e+01	9.99999949e-01
1.55000000e+01	9.99999948e-01
1.65000000e+01	9.99999946e-01
1.75000000e+01	9.99999944e-01
1.85000000e+01	9.99999941e-01
1.95000000e+01	9.99999939e-01
2.05000000e+01	9.99999936e-01
2.15000000e+01	9.99999934e-01
2.25000000e+01	9.99999931e-01
2.35000000e+01	9.99999928e-01
2.45000000e+01	9.99999925e-01
2.55000000e+01	9.99999922e-01
2.65000000e+01	9.99999919e-01
2.75000000e+01	9.99999916e-01
2.85000000e+01	9.99999913e-01
2.95000000e+01	9.99999909e-01
3.05000000e+01	9.99999906e-01
3.15000000e+01	9.99999902e-01
3.25000000e+01	9.99999898e-01
3.35000000e+01	9.99999894e-01
3.45000000e+01	9.99999890e-01
3.55000000e+01	9.99999886e-01
3.65000000e+01	9.99999881e-01
3.75000000e+01	9.99999876e-01
3.85000000e+01	9.99999871e-01
3.95000000e+01	9.99999866e-01
4.05000000e+01	9.99999861e-01
4.15000000e+01	9.99999855e-01
4.25000000e+01	9.99999850e-01
4.35000000e+01	9.99999844e-01
4.45000000e+01	9.99999837e-01
4.55000000e+01	9.99999831e-01
4.65000000e+01	9.99999824e-01
4.75000000e+01	9.99999817e-01
4.85000000e+01	9.99999810e-01
4.95000000e+01	9.99999802e-01
5.05000000e+01	9.99999795e-01
5.15000000e+01	9.99999786e-01
5.25000000e+01	9.99999778e-01
5.35000000e+01	9.99999769e-01
5.45000000e+01	9.99999759e-01
5.55000000e+01	9.99999750e-01
5.65000000e+01	9.99999740e-01
5.75000000e+01	9.99999729e-01
5.85000000e+01	9.99999718e-01
5.95000000e+01	9.99999707e-01
6.05000000e+01	9.99999695e-01
6.15000000e+01	9.99999682e-01
6.25000000e+01	9.99999669e-01
6.35000000e+01	9.99999656e-01
6.45000000e+01	9.99999642e-01
6.55000000e+01	9.99999627e-01
6.65000000e+01	9.99999612e-01
6.75000000e+01	9.99999596e-01
6.85000000e+01	9.99999580e-01
6.95000000e+01	9.99999563e-01
7.05000000e+01	9.99999545e-01
7.15000000e+01	9.99999526e-01
7.25000000e+01	9.99999507e-01
7.35000000e+01	9.99999487e-01
7.45000000e+01	9.99999466e-01
7.55000000e+01	9.99999444e-01
7.65000000e+01	9.99999422e-01
7.75000000e+01	9.99999398e-01
7.85000000e+01	9.99999374e-01
7.95000000e+01	9.99999348e-01
8.05000000e+01	9.99999321e-01
8.15000000e+01	9.99999294e-01
8.25000000e+01	9.99999265e-01
8.35000000e+01	9.99999235e-01
8.45000000e+01	9.99999204e-01
8.55000000e+01	9.99999171e-01
8.65000000e+01	9.99999137e-01
8.75000000e+01	9.99999102e-01
8.85000000e+01	9.99999066e-01
8.95000000e+01	9.99999028e-01
9.05000000e+01	9.99998988e-01
9.15000000e+01	9.99998947e-01
9.25000000e+01	9.99998904e-01
9.35000000e+01	9.99998859e-01
9.45000000e+01	9.99998812e-01
9.55000000e+01	9.99998764e-01
9.65000000e+01	9.99998713e-01
9.75000000e+01	9.99998661e-01
9.85000000e+01	9.99998606e-01
9.95000000e+01	9.99998550e-01
1.00500000e+02	9.99998490e-01
1.01500000e+02	9.99998429e-01
1.02500000e+02	9.99998365e-01
1.03500000e+02	9.99998298e-01
1.04500000e+02	9.99998229e-01
1.05500000e+02	9.99998156e-01
1.06500000e+02	9.99998081e-01
1.07500000e+02	9.99998003e-01
1.08500000e+02	9.99997921e-01
1.09500000e+02	9.99997836e-01
1.10500000e+02	9.99997748e-01
1.11500000e+02	9.99997656e-01
1.12500000e+02	9.99997561e-01
1.13500000e+02	9.99997461e-01
1.14500000e+02	9.99997357e-01
1.15500000e+02	9.99997250e-01
1.16500000e+02	9.99997137e-01
1.17500000e+02	9.99997021e-01
1.18500000e+02	9.99996899e-01
1.19500000e+02	9.99996773e-01
1.20500000e+02	9.99996641e-01
1.21500000e+02	9.99996504e-01
1.22500000e+02	9.99996361e-01
1.23500000e+02	9.99996213e-01
1.24500000e+02	9.99996058e-01
1.25500000e+02	9.99995897e-01
1.26500000e+02	9.99995730e-01
1.27500000e+02	9.99995556e-01
1.28500000e+02	9.99995374e-01
1.29500000e+02	9.99995185e-01
1.30500000e+02	9.99994989e-01
1.31500000e+02	9.99994785e-01
1.32500000e+02	9.99994572e-01
1.33500000e+02	9.99994350e-01
1.34500000e+02	9.99994120e-01
1.35500000e+02	9.99993880e-01
1.36500000e+02	9.99993630e-01
1.37500000e+02	9.99993370e-01
1.38500000e+02	9.99993099e-01
1.39500000e+02	9.99992818e-01
1.40500000e+02	9.99992525e-01
1.41500000e+02	9.99992220e-01
1.42500000e+02	9.99991902e-01
1.43500000e+02	9.99991572e-01
1.44500000e+02	9.99991228e-01
1.45500000e+02	9.99990870e-01
1.46500000e+02	9.99990497e-01
1.47500000e+02	9.99990110e-01
1.48500000e+02	9.99989706e-01
1.49500000e+02	9.99989286e-01
1.50500000e+02	9.99988849e-01
1.51500000e+02	9.99988394e-01
1.52500000e+02	9.99987920e-01
1.53500000e+02	9.99987427e-01
1.54500000e+02	9.99986914e-01
1.55500000e+02	9.99986380e-01
1.56500000e+02	9.99985825e-01
1.57500000e+02	9.99985246e-01
1.58500000e+02	9.99984644e-01
1.59500000e+02	9.99984017e-01
1.60500000e+02	9.99983365e-01
1.61500000e+02	9.99982686e-01
1.62500000e+02	9.99981980e-01
1.63500000e+02	9.99981245e-01
1.64500000e+02	9.99980479e-01
1.65500000e+02	9.99979683e-01
1.66500000e+02	9.99978854e-01
1.67500000e+02	9.99977991e-01
1.68500000e+02	9.99977093e-01
1.69500000e+02	9.99976158e-01
1.70500000e+02	9.99975185e-01
1.71500000e+02	9.99974173e-01
1.72500000e+02	9.99973119e-01
1.73500000e+02	9.99972022e-01
1.74500000e+02	9.99970881e-01
1.75500000e+02	9.99969693e-01
1.76500000e+02	9.99968456e-01
1.77500000e+02	9.99967169e-01
1.78500000e+02	9.99965829e-01
1.79500000e+02	9.99964435e-01
1.80500000e+02	9.99962984e-01
1.81500000e+02	9.99961474e-01
1.82500000e+02	9.99959902e-01
1.83500000e+02	9.99958266e-01
1.84500000e+02	9.99956563e-01
1.85500000e+02	9.99954791e-01
1.86500000e+02	9.99952947e-01
1.87500000e+02	9.99951027e-01
1.88500000e+02	9.99949029e-01
1.89500000e+02	9.99946949e-01
1.90500000e+02	9.99944785e-01
1.91500000e+02	9.99942533e-01
1.92500000e+02	9.99940188e-01
1.93500000e+02	9.99937748e-01
1.94500000e+02	9.99935209e-01
1.95500000e+02	9.99932566e-01
1.96500000e+02	9.99929815e-01
1.97500000e+02	9.99926952e-01
1.98500000e+02	9.99923972e-01
1.99500000e+02	9.99920871e-01
2.00500000e+02	9.99917643e-01
2.01500000e+02	9.99914284e-01
2.02500000e+02	9.99910788e-01
2.03500000e+02	9.99907149e-01
2.04500000e+02	9.99903362e-01
2.05500000e+02	9.99899421e-01
2.06500000e+02	9.99895319e-01
2.07500000e+02	9.99891049e-01
2.08500000e+02	9.99886606e-01
2.09500000e+02	9.99881982e-01
2.10500000e+02	9.99877169e-01
2.11500000e+02	9.99872160e-01
2.12500000e+02	9.99866947e-01
2.13500000e+02	9.99861522e-01
2.14500000e+02	9.99855876e-01
2.15500000e+02	9.99850000e-01
2.16500000e+02	9.99843884e-01
2.17500000e+02	9.99837519e-01
2.18500000e+02	9.99830895e-01
2.19500000e+02	9.99824001e-01
2.20500000e+02	9.99816827e-01
2.21500000e+02	9.99809360e-01
2.22500000e+02	9.99801590e-01
2.23500000e+02	9.99793503e-01
2.24500000e+02	9.99785087e-01
2.25500000e+02	9.99776328e-01
2.26500000e+02	9.99767213e-01
2.27500000e+02	9.99757727e-01
2.28500000e+02	9.99747855e-01
2.29500000e+02	9.99737582e-01
2.30500000e+02	9.99726891e-01
2.31500000e+02	9.99715764e-01
2.32500000e+02	9.99704186e-01
2.33500000e+02	9.99692136e-01
2.34500000e+02	9.99679597e-01
2.35500000e+02	9.99666548e-01
2.36500000e+02	9.99652969e-01
2.37500000e+02	9.99638838e-01
2.38500000e+02	9.99624133e-01
2.39500000e+02	9.99608831e-01
2.40500000e+02	9.99592907e-01
2.41500000e+02	9.99576337e-01
2.42500000e+02	9.99559094e-01
2.43500000e+02	9.99541151e-01
2.44500000e+02	9.99522480e-01
2.45500000e+02	9.99503052e-01
2.46500000e+02	9.99482836e-01
2.47500000e+02	9.99461800e-01
2.48500000e+02	9.99439912e-01
2.49500000e+02	9.99417136e-01
2.50500000e+02	9.99393438e-01
2.51500000e+02	9.99368780e-01
2.52500000e+02	9.99343123e-01
2.53500000e+02	9.99316428e-01
2.54500000e+02	9.99288653e-01
2.55500000e+02	9.99259755e-01
2.56500000e+02	9.99229687e-01
2.57500000e+02	9.99198405e-01
2.58500000e+02	9.99165859e-01
2.59500000e+02	9.99131998e-01
2.60500000e+02	9.99096770e-01
2.61500000e+02	9.99060120e-01
2.62500000e+02	9.99021992e-01
2.63500000e+02	9.98982327e-01
2.64500000e+02	9.98941064e-01
2.65500000e+02	9.98898138e-01
2.66500000e+02	9.98853485e-01
2.67500000e+02	9.98807035e-01
2.68500000e+02	9.98758717e-01
2.69500000e+02	9.98708457e-01
2.70500000e+02	9.98656178e-01
2.71500000e+02	9.98601801e-01
2.72500000e+02	9.98545243e-01
2.73500000e+02	9.98486417e-01
2.74500000e+02	9.98425235e-01
2.75500000e+02	9.98361604e-01
2.76500000e+02	9.98295428e-01
2.77500000e+02	9.98226607e-01
2.78500000e+02	9.98155038e-01
2.79500000e+02	9.98080612e-01
2.80500000e+02	9.98003220e-01
2.81500000e+02	9.97922745e-01
2.82500000e+02	9.97839068e-01
2.83500000e+02	9.97752064e-01
2.84500000e+02	9.97661605e-01
2.85500000e+02	9.97567558e-01
2.86500000e+02	9.97469783e-01
2.87500000e+02	9.97368137e-01
2.88500000e+02	9.97262473e-01
2.89500000e+02	9.97152636e-01
2.90500000e+02	9.97038467e-01
2.91500000e+02	9.96919800e-01
2.92500000e+02	9.96796465e-01
2.93500000e+02	9.96668285e-01
2.94500000e+02	9.96535076e-01
2.95500000e+02	9.96396650e-01
2.96500000e+02	9.96252810e-01
2.97500000e+02	9.96103353e-01
2.98500000e+02	9.95948069e-01
2.99500000e+02	9.95786742e-01
3.00500000e+02	9.95619147e-01
3.01500000e+02	9.95445053e-01
3.02500000e+02	9.95264220e-01
3.03500000e+02	9.95076401e-01
3.04500000e+02	9.94881341e-01
3.05500000e+02	9.94678775e-01
3.06500000e+02	9.94468431e-01
3.07500000e+02	9.94250028e-01
3.08500000e+02	9.94023278e-01
3.09500000e+02	9.93787880e-01
3.10500000e+02	9.93543526e-01
3.11500000e+02	9.93289899e-01
3.12500000e+02	9.93026672e-01
3.13500000e+02	9.92753507e-01
3.14500000e+02	9.92470057e-01
3.15500000e+02	9.92175965e-01
3.16500000e+02	9.91870862e-01
3.17500000e+02	9.91554372e-01
3.18500000e+02	9.91226103e-01
3.19500000e+02	9.90885657e-01
3.20500000e+02	9.90532623e-01
3.21500000e+02	9.90166577e-01
3.22500000e+02	9.89787088e-01
3.23500000e+02	9.89393709e-01
3.24500000e+02	9.88985985e-01
3.25500000e+02	9.88563446e-01
3.26500000e+02	9.88125614e-01
3.27500000e+02	9.87671997e-01
3.28500000e+02	9.87202091e-01
3.29500000e+02	9.86715379e-01
3.30500000e+02	9.86211336e-01
3.31500000e+02	9.85689420e-01
3.32500000e+02	9.85149081e-01
3.33500000e+02	9.84589753e-01
3.34500000e+02	9.84010863e-01
3.35500000e+02	9.83411820e-01
3.36500000e+02	9.82792027e-01
3.37500000e+02	9.82150871e-01
3.38500000e+02	9.81487728e-01
3.39500000e+02	9.80801964e-01
3.40500000e+02	9.80092932e-01
3.41500000e+02	9.79359973e-01
3.42500000e+02	9.78602419e-01
3.43500000e+02	9.77819588e-01
3.44500000e+02	9.77010789e-01
3.45500000e+02	9.76175322e-01
3.46500000e+02	9.75312472e-01
3.47500000e+02	9.74421519e-01
3.48500000e+02	9.73501730e-01
3.49500000e+02	9.72552363e-01
3.50500000e+02	9.71572668e-01
3.51500000e+02	9.70561885e-01
3.52500000e+02	9.69519246e-01
3.53500000e+02	9.68443976e-01
3.54500000e+02	9.67335291e-01
3.55500000e+02	9.66192401e-01
3.56500000e+02	9.65014507e-01
3.57500000e+02	9.63800807e-01
3.58500000e+02	9.62550492e-01
3.59500000e+02	9.61262747e-01
3.60500000e+02	9.59936752e-01
3.61500000e+02	9.58571685e-01
3.62500000e+02	9.57166719e-01
3.63500000e+02	9.55721024e-01
3.64500000e+02	9.54233767e-01
3.65500000e+02	9.52704113e-01
3.66500000e+02	9.51131229e-01
3.67500000e+02	9.49514276e-01
3.68500000e+02	9.47852419e-01
3.69500000e+02	9.46144821e-01
3.70500000e+02	9.44390649e-01
3.71500000e+02	9.42589068e-01
3.72500000e+02	9.40739250e-01
3.73500000e+02	9.38840365e-01
3.74500000e+02	9.36891590e-01
3.75500000e+02	9.34892105e-01
3.76500000e+02	9.32841096e-01
3.77500000e+02	9.30737753e-01
3.78500000e+02	9.28581273e-01
3.79500000e+02	9.26370860e-01
3.80500000e+02	9.24105724e-01
3.81500000e+02	9.21785085e-01
3.82500000e+02	9.19408169e-01
3.83500000e+02	9.16974213e-01
3.84500000e+02	9.14482464e-01
3.85500000e+02	9.11932178e-01
3.86500000e+02	9.09322621e-01
3.87500000e+02	9.06653073e-01
3.88500000e+02	9.03922824e-01
3.89500000e+02	9.01131177e-01
3.90500000e+02	8.98277448e-01
3.91500000e+02	8.95360967e-01
3.92500000e+02	8.92381077e-01
3.93500000e+02	8.89337137e-01
3.94500000e+02	8.86228520e-01
3.95500000e+02	8.83054614e-01
3.96500000e+02	8.79814826e-01
3.97500000e+02	8.76508577e-01
3.98500000e+02	8.73135306e-01
3.99500000e+02	8.69694469e-01
4.00500000e+02	8.66185542e-01
4.01500000e+02	8.62608019e-01
4.02500000e+02	8.58961412e-01
4.03500000e+02	8.55245256e-01
4.04500000e+02	8.51459103e-01
4.05500000e+02	8.47602529e-01
4.06500000e+02	8.43675130e-01
4.07500000e+02	8.39676525e-01
4.08500000e+02	8.35606357e-01
4.09500000e+02	8.31464292e-01
4.10500000e+02	8.27250020e-01
4.11500000e+02	8.22963258e-01
4.12500000e+02	8.18603749e-01
4.13500000e+02	8.14171261e-01
4.14500000e+02	8.09665592e-01
4.15500000e+02	8.05086571e-01
4.16500000e+02	8.00434052e-01
4.17500000e+02	7.95707926e-01
4.18500000e+02	7.90908112e-01
4.19500000e+02	7.86034565e-01
4.20500000e+02	7.81087274e-01
4.21500000e+02	7.76066267e-01
4.22500000e+02	7.70971606e-01
4.23500000e+02	7.65803395e-01
4.24500000e+02	7.60561779e-01
4.25500000e+02	7.55246946e-01
4.26500000e+02	7.49859128e-01
4.27500000e+02	7.44398606e-01
4.28500000e+02	7.38865707e-01
4.29500000e+02	7.33260811e-01
4.30500000e+02	7.27584350e-01
4.31500000e+02	7.21836813e-01
4.32500000e+02	7.16018747e-01
4.33500000e+02	7.10130759e-01
4.34500000e+02	7.04173521e-01
4.35500000e+02	6.98147769e-01
4.36500000e+02	6.92054309e-01
4.37500000e+02	6.85894021e-01
4.38500000e+02	6.79667859e-01
4.39500000e+02	6.73376853e-01
4.40500000e+02	6.67022120e-01
4.41500000e+02	6.60604856e-01
4.42500000e+02	6.54126350e-01
4.43500000e+02	6.47587980e-01
4.44500000e+02	6.40991220e-01
4.45500000e+02	6.34337644e-01
4.46500000e+02	6.27628924e-01
4.47500000e+02	6.20866842e-01
4.48500000e+02	6.14053284e-01
4.49500000e+02	6.07190253e-01
4.50500000e+02	6.00279862e-01
4.51500000e+02	5.93324346e-01
4.52500000e+02	5.86326059e-01
4.53500000e+02	5.79287477e-01
4.54500000e+02	5.72211203e-01
4.55500000e+02	5.65099970e-01
4.56500000e+02	5.57956637e-01
4.57500000e+02	5.50784194e-01
4.58500000e+02	5.43585765e-01
4.59500000e+02	5.36364604e-01
4.60500000e+02	5.29124097e-01
4.61500000e+02	5.21867762e-01
4.62500000e+02	5.14599246e-01
4.63500000e+02	5.07322324e-01
4.64500000e+02	5.00040894e-01
4.65500000e+02	4.92758978e-01
4.66500000e+02	4.85480712e-01
4.67500000e+02	4.78210346e-01
4.68500000e+02	4.70952232e-01
4.69500000e+02	4.63710822e-01
4.70500000e+02	4.56490656e-01
4.71500000e+02	4.49296356e-01
4.72500000e+02	4.42132612e-01
4.73500000e+02	4.35004174e-01
4.74500000e+02	4.27915839e-01
4.75500000e+02	4.20872436e-01
4.76500000e+02	4.13878815e-01
4.77500000e+02	4.06939828e-01
4.78500000e+02	4.00060319e-01
4.79500000e+02	3.93245100e-01
4.80500000e+02	3.86498941e-01
4.81500000e+02	3.79826548e-01
4.82500000e+02	3.73232545e-01
4.83500000e+02	3.66721457e-01
4.84500000e+02	3.60297694e-01
4.85500000e+02	3.53965525e-01
4.86500000e+02	3.47729068e-01
4.87500000e+02	3.41592266e-01
4.88500000e+02	3.35558872e-01
4.89500000e+02	3.29632432e-01
4.90500000e+02	3.23816269e-01
4.91500000e+02	3.18113467e-01
4.92500000e+02	3.12526857e-01
4.93500000e+02	3.07059006e-01
4.94500000e+02	3.01712206e-01
4.95500000e+02	2.96488462e-01
4.96500000e+02	2.91389487e-01
4.97500000e+02	2.86416695e-01
4.98500000e+02	2.81571197e-01
4.99500000e+02	2.76853800e-01
5.00500000e+02	2.72265009e-01
5.01500000e+02	2.67805026e-01
5.02500000e+02	2.63473755e-01
5.03500000e+02	2.59270813e-01
5.04500000e+02	2.55195534e-01
5.05500000e+02	2.51246982e-01
5.06500000e+02	2.47423963e-01
5.07500000e+02	2.43725038e-01
5.08500000e+02	2.40148543e-01
5.09500000e+02	2.36692599e-01
5.10500000e+02	2.33355135e-01
5.11500000e+02	2.30133905e-01
5.12500000e+02	2.27026507e-01
5.13500000e+02	2.24030404e-01
5.14500000e+02	2.21142941e-01
5.15500000e+02	2.18361367e-01
5.16500000e+02	2.15682851e-01
5.17500000e+02	2.13104504e-01
5.18500000e+02	2.10623392e-01
5.19500000e+02	2.08236557e-01
5.20500000e+02	2.05941029e-01
5.21500000e+02	2.03733840e-01
5.22500000e+02	2.01612041e-01
5.23500000e+02	1.99572708e-01
5.24500000e+02	1.97612956e-01
5.25500000e+02	1.95729945e-01
5.26500000e+02	1.93920891e-01
5.27500000e+02	1.92183070e-01
5.28500000e+02	1.90513822e-01
5.29500000e+02	1.88910559e-01
5.30500000e+02	1.87370765e-01
5.31500000e+02	1.85891999e-01
5.32500000e+02	1.84471896e-01
5.33500000e+02	1.83108170e-01
5.34500000e+02	1.81798610e-01
5.35500000e+02	1.80541084e-01
5.36500000e+02	1.79333536e-01
5.37500000e+02	1.78173986e-01
5.38500000e+02	1.77060526e-01
5.39500000e+02	1.75991321e-01
5.40500000e+02	1.74964607e-01
5.41500000e+02	1.73978688e-01
5.42500000e+02	1.73031932e-01
5.43500000e+02	1.72122775e-01
5.44500000e+02	1.71249713e-01
5.45500000e+02	1.70411301e-01
5.46500000e+02	1.69606154e-01
5.47500000e+02	1.68832939e-01
5.48500000e+02	1.68090381e-01
5.49500000e+02	1.67377253e-01
5.50500000e+02	1.66692378e-01
5.51500000e+02	1.66034628e-01
5.52500000e+02	1.65402919e-01
5.53500000e+02	1.64796211e-01
5.54500000e+02	1.64213507e-01
5.55500000e+02	1.63653849e-01
5.56500000e+02	1.63116319e-01
5.57500000e+02	1.62600034e-01
5.58500000e+02	1.62104150e-01
5.59500000e+02	1.61627853e-01
5.60500000e+02	1.61170365e-01
5.61500000e+02	1.60730937e-01
5.62500000e+02	1.60308853e-01
5.63500000e+02	1.59903423e-01
5.64500000e+02	1.59513986e-01
5.65500000e+02	1.59139907e-01
5.66500000e+02	1.58780577e-01
5.67500000e+02	1.58435412e-01
5.68500000e+02	1.58103850e-01
5.69500000e+02	1.57785353e-01
5.70500000e+02	1.57479402e-01
5.71500000e+02	1.57185502e-01
5.72500000e+02	1.56903175e-01
5.73500000e+02	1.56631964e-01
5.74500000e+02	1.56371430e-01
5.75500000e+02	1.56121150e-01
5.76500000e+02	1.55880719e-01
5.77500000e+02	1.55649749e-01
5.78500000e+02	1.55427866e-01
5.79500000e+02	1.55214710e-01
5.80500000e+02	1.55009938e-01
5.81500000e+02	1.54813219e-01
5.82500000e+02	1.54624235e-01
5.83500000e+02	1.54442681e-01
5.84500000e+02	1.54268265e-01
5.85500000e+02	1.54100704e-01
5.86500000e+02	1.53939730e-01
5.87500000e+02	1.53785081e-01
5.88500000e+02	1.53636510e-01
5.89500000e+02	1.53493776e-01
5.90500000e+02	1.53356651e-01
5.91500000e+02	1.53224913e-01
5.92500000e+02	1.53098349e-01
5.93500000e+02	1.52976757e-01
5.94500000e+02	1.52859941e-01
5.95500000e+02	1.52747713e-01
5.96500000e+02	1.52639892e-01
5.97500000e+02	1.52536306e-01
5.98500000e+02	1.52436787e-01
5.99500000e+02	1.52341175e-01
6.00500000e+02	1.52249317e-01
6.01500000e+02	1.52161066e-01
6.02500000e+02	1.52076280e-01
6.03500000e+02	1.51994821e-01
6.04500000e+02	1.51916561e-01
6.05500000e+02	1.51841372e-01
6.06500000e+02	1.51769135e-01
6.07500000e+02	1.51699733e-01
6.08500000e+02	1.51633054e-01
6.09500000e+02	1.51568993e-01
6.10500000e+02	1.51507446e-01
6.11500000e+02	1.51448314e-01
6.12500000e+02	1.51391502e-01
6.13500000e+02	1.51336920e-01
6.14500000e+02	1.51284480e-01
6.15500000e+02	1.51234097e-01
6.16500000e+02	1.51185691e-01
6.17500000e+02	1.51139185e-01
6.18500000e+02	1.51094503e-01
6.19500000e+02	1.51051574e-01
6.20500000e+02	1.51010330e-01
6.21500000e+02	1.50970703e-01
6.22500000e+02	1.50932632e-01
6.23500000e+02	1.50896053e-01
6.24500000e+02	1.50860910e-01
6.25500000e+02	1.50827146e-01
6.26500000e+02	1.50794706e-01
6.27500000e+02	1.50763538e-01
6.28500000e+02	1.50733593e-01
6.29500000e+02	1.50704823e-01
6.30500000e+02	1.50677181e-01
6.31500000e+02	1.50650624e-01
6.32500000e+02	1.50625108e-01
6.33500000e+02	1.50600593e-01
6.34500000e+02	1.50577040e-01
6.35500000e+02	1.50554410e-01
6.36500000e+02	1.50532668e-01
6.37500000e+02	1.50511779e-01
6.38500000e+02	1.50491709e-01
6.39500000e+02	1.50472426e-01
6.40500000e+02	1.50453900e-01
6.41500000e+02	1.50436100e-01
6.42500000e+02	1.50418998e-01
6.43500000e+02	1.50402567e-01
6.44500000e+02	1.50386781e-01
6.45500000e+02	1.50371613e-01
6.46500000e+02	1.50357041e-01
6.47500000e+02	1.50343040e-01
6.48500000e+02	1.50329588e-01
6.49500000e+02	1.50316663e-01
6.50500000e+02	1.50304246e-01
6.51500000e+02	1.50292315e-01
6.52500000e+02	1.50280852e-01
6.53500000e+02	1.50269839e-01
6.54500000e+02	1.50259258e-01
6.55500000e+02	1.50249091e-01
6.56500000e+02	1.50239324e-01
6.57500000e+02	1.50229939e-01
6.58500000e+02	1.50220923e-01
6.59500000e+02	1.50212260e-01
6.60500000e+02	1.50203936e-01
