# Profil de Te au temps 2.000999999999940e-11 
# simu : /Volumes/MERCURE/JOBS/Zeq2_tanh_50mic_7p5e19_B0_20ps/GNU/Te@y-c.set
# col 0 : abscisse (um)
# col 1 : Te (keV)
5.00000000e-01	9.58009785e-01
1.50000000e+00	9.58008341e-01
2.50000000e+00	9.58005666e-01
3.50000000e+00	9.58001657e-01
4.50000000e+00	9.57996252e-01
5.50000000e+00	9.57989502e-01
6.50000000e+00	9.57981403e-01
7.50000000e+00	9.57971953e-01
8.50000000e+00	9.57961154e-01
9.50000000e+00	9.57949004e-01
1.05000000e+01	9.57935504e-01
1.15000000e+01	9.57920655e-01
1.25000000e+01	9.57904455e-01
1.35000000e+01	9.57886905e-01
1.45000000e+01	9.57868004e-01
1.55000000e+01	9.57847753e-01
1.65000000e+01	9.57826152e-01
1.75000000e+01	9.57803201e-01
1.85000000e+01	9.57778898e-01
1.95000000e+01	9.57753245e-01
2.05000000e+01	9.57726242e-01
2.15000000e+01	9.57697887e-01
2.25000000e+01	9.57668181e-01
2.35000000e+01	9.57637124e-01
2.45000000e+01	9.57604716e-01
2.55000000e+01	9.57570957e-01
2.65000000e+01	9.57535845e-01
2.75000000e+01	9.57499382e-01
2.85000000e+01	9.57461567e-01
2.95000000e+01	9.57422400e-01
3.05000000e+01	9.57381881e-01
3.15000000e+01	9.57340009e-01
3.25000000e+01	9.57296784e-01
3.35000000e+01	9.57252206e-01
3.45000000e+01	9.57206275e-01
3.55000000e+01	9.57158990e-01
3.65000000e+01	9.57110352e-01
3.75000000e+01	9.57060359e-01
3.85000000e+01	9.57009012e-01
3.95000000e+01	9.56956310e-01
4.05000000e+01	9.56902253e-01
4.15000000e+01	9.56846841e-01
4.25000000e+01	9.56790073e-01
4.35000000e+01	9.56731948e-01
4.45000000e+01	9.56672467e-01
4.55000000e+01	9.56611629e-01
4.65000000e+01	9.56549434e-01
4.75000000e+01	9.56485880e-01
4.85000000e+01	9.56420968e-01
4.95000000e+01	9.56354696e-01
5.05000000e+01	9.56287066e-01
5.15000000e+01	9.56218075e-01
5.25000000e+01	9.56147723e-01
5.35000000e+01	9.56076010e-01
5.45000000e+01	9.56002934e-01
5.55000000e+01	9.55928497e-01
5.65000000e+01	9.55852695e-01
5.75000000e+01	9.55775530e-01
5.85000000e+01	9.55696999e-01
5.95000000e+01	9.55617103e-01
6.05000000e+01	9.55535840e-01
6.15000000e+01	9.55453209e-01
6.25000000e+01	9.55369211e-01
6.35000000e+01	9.55283842e-01
6.45000000e+01	9.55197104e-01
6.55000000e+01	9.55108994e-01
6.65000000e+01	9.55019512e-01
6.75000000e+01	9.54928656e-01
6.85000000e+01	9.54836425e-01
6.95000000e+01	9.54742819e-01
7.05000000e+01	9.54647836e-01
7.15000000e+01	9.54551474e-01
7.25000000e+01	9.54453732e-01
7.35000000e+01	9.54354610e-01
7.45000000e+01	9.54254105e-01
7.55000000e+01	9.54152215e-01
7.65000000e+01	9.54048941e-01
7.75000000e+01	9.53944279e-01
7.85000000e+01	9.53838228e-01
7.95000000e+01	9.53730787e-01
8.05000000e+01	9.53621954e-01
8.15000000e+01	9.53511727e-01
8.25000000e+01	9.53400104e-01
8.35000000e+01	9.53287083e-01
8.45000000e+01	9.53172662e-01
8.55000000e+01	9.53056840e-01
8.65000000e+01	9.52939614e-01
8.75000000e+01	9.52820981e-01
8.85000000e+01	9.52700940e-01
8.95000000e+01	9.52579488e-01
9.05000000e+01	9.52456623e-01
9.15000000e+01	9.52332342e-01
9.25000000e+01	9.52206644e-01
9.35000000e+01	9.52079525e-01
9.45000000e+01	9.51950984e-01
9.55000000e+01	9.51821017e-01
9.65000000e+01	9.51689621e-01
9.75000000e+01	9.51556792e-01
9.85000000e+01	9.51422529e-01
9.95000000e+01	9.51286829e-01
1.00500000e+02	9.51149686e-01
1.01500000e+02	9.51011100e-01
1.02500000e+02	9.50871065e-01
1.03500000e+02	9.50729579e-01
1.04500000e+02	9.50586638e-01
1.05500000e+02	9.50442238e-01
1.06500000e+02	9.50296375e-01
1.07500000e+02	9.50149045e-01
1.08500000e+02	9.50000245e-01
1.09500000e+02	9.49849971e-01
1.10500000e+02	9.49698217e-01
1.11500000e+02	9.49544980e-01
1.12500000e+02	9.49390256e-01
1.13500000e+02	9.49234040e-01
1.14500000e+02	9.49076327e-01
1.15500000e+02	9.48917112e-01
1.16500000e+02	9.48756391e-01
1.17500000e+02	9.48594158e-01
1.18500000e+02	9.48430409e-01
1.19500000e+02	9.48265138e-01
1.20500000e+02	9.48098340e-01
1.21500000e+02	9.47930010e-01
1.22500000e+02	9.47760141e-01
1.23500000e+02	9.47588728e-01
1.24500000e+02	9.47415766e-01
1.25500000e+02	9.47241247e-01
1.26500000e+02	9.47065167e-01
1.27500000e+02	9.46887519e-01
1.28500000e+02	9.46708295e-01
1.29500000e+02	9.46527491e-01
1.30500000e+02	9.46345099e-01
1.31500000e+02	9.46161112e-01
1.32500000e+02	9.45975523e-01
1.33500000e+02	9.45788325e-01
1.34500000e+02	9.45599511e-01
1.35500000e+02	9.45409074e-01
1.36500000e+02	9.45217006e-01
1.37500000e+02	9.45023299e-01
1.38500000e+02	9.44827945e-01
1.39500000e+02	9.44630936e-01
1.40500000e+02	9.44432265e-01
1.41500000e+02	9.44231922e-01
1.42500000e+02	9.44029899e-01
1.43500000e+02	9.43826188e-01
1.44500000e+02	9.43620780e-01
1.45500000e+02	9.43413665e-01
1.46500000e+02	9.43204835e-01
1.47500000e+02	9.42994281e-01
1.48500000e+02	9.42781991e-01
1.49500000e+02	9.42567958e-01
1.50500000e+02	9.42352172e-01
1.51500000e+02	9.42134621e-01
1.52500000e+02	9.41915296e-01
1.53500000e+02	9.41694187e-01
1.54500000e+02	9.41471284e-01
1.55500000e+02	9.41246574e-01
1.56500000e+02	9.41020048e-01
1.57500000e+02	9.40791694e-01
1.58500000e+02	9.40561502e-01
1.59500000e+02	9.40329459e-01
1.60500000e+02	9.40095554e-01
1.61500000e+02	9.39859776e-01
1.62500000e+02	9.39622111e-01
1.63500000e+02	9.39382549e-01
1.64500000e+02	9.39141076e-01
1.65500000e+02	9.38897680e-01
1.66500000e+02	9.38652349e-01
1.67500000e+02	9.38405069e-01
1.68500000e+02	9.38155827e-01
1.69500000e+02	9.37904610e-01
1.70500000e+02	9.37651405e-01
1.71500000e+02	9.37396196e-01
1.72500000e+02	9.37138972e-01
1.73500000e+02	9.36879717e-01
1.74500000e+02	9.36618417e-01
1.75500000e+02	9.36355057e-01
1.76500000e+02	9.36089623e-01
1.77500000e+02	9.35822101e-01
1.78500000e+02	9.35552474e-01
1.79500000e+02	9.35280727e-01
1.80500000e+02	9.35006845e-01
1.81500000e+02	9.34730811e-01
1.82500000e+02	9.34452611e-01
1.83500000e+02	9.34172228e-01
1.84500000e+02	9.33889645e-01
1.85500000e+02	9.33604845e-01
1.86500000e+02	9.33317812e-01
1.87500000e+02	9.33028530e-01
1.88500000e+02	9.32736979e-01
1.89500000e+02	9.32443144e-01
1.90500000e+02	9.32147006e-01
1.91500000e+02	9.31848547e-01
1.92500000e+02	9.31547750e-01
1.93500000e+02	9.31244595e-01
1.94500000e+02	9.30939064e-01
1.95500000e+02	9.30631139e-01
1.96500000e+02	9.30320800e-01
1.97500000e+02	9.30008028e-01
1.98500000e+02	9.29692804e-01
1.99500000e+02	9.29375107e-01
2.00500000e+02	9.29054918e-01
2.01500000e+02	9.28732217e-01
2.02500000e+02	9.28406982e-01
2.03500000e+02	9.28079194e-01
2.04500000e+02	9.27748832e-01
2.05500000e+02	9.27415873e-01
2.06500000e+02	9.27080298e-01
2.07500000e+02	9.26742084e-01
2.08500000e+02	9.26401209e-01
2.09500000e+02	9.26057651e-01
2.10500000e+02	9.25711387e-01
2.11500000e+02	9.25362396e-01
2.12500000e+02	9.25010654e-01
2.13500000e+02	9.24656138e-01
2.14500000e+02	9.24298825e-01
2.15500000e+02	9.23938691e-01
2.16500000e+02	9.23575711e-01
2.17500000e+02	9.23209862e-01
2.18500000e+02	9.22841119e-01
2.19500000e+02	9.22469458e-01
2.20500000e+02	9.22094854e-01
2.21500000e+02	9.21717280e-01
2.22500000e+02	9.21336712e-01
2.23500000e+02	9.20953124e-01
2.24500000e+02	9.20566490e-01
2.25500000e+02	9.20176783e-01
2.26500000e+02	9.19783976e-01
2.27500000e+02	9.19388043e-01
2.28500000e+02	9.18988956e-01
2.29500000e+02	9.18586687e-01
2.30500000e+02	9.18181210e-01
2.31500000e+02	9.17772495e-01
2.32500000e+02	9.17360514e-01
2.33500000e+02	9.16945239e-01
2.34500000e+02	9.16526639e-01
2.35500000e+02	9.16104686e-01
2.36500000e+02	9.15679351e-01
2.37500000e+02	9.15250602e-01
2.38500000e+02	9.14818409e-01
2.39500000e+02	9.14382742e-01
2.40500000e+02	9.13943570e-01
2.41500000e+02	9.13500861e-01
2.42500000e+02	9.13054584e-01
2.43500000e+02	9.12604706e-01
2.44500000e+02	9.12151195e-01
2.45500000e+02	9.11694017e-01
2.46500000e+02	9.11233141e-01
2.47500000e+02	9.10768532e-01
2.48500000e+02	9.10300157e-01
2.49500000e+02	9.09827980e-01
2.50500000e+02	9.09351968e-01
2.51500000e+02	9.08872086e-01
2.52500000e+02	9.08388297e-01
2.53500000e+02	9.07900567e-01
2.54500000e+02	9.07408858e-01
2.55500000e+02	9.06913135e-01
2.56500000e+02	9.06413359e-01
2.57500000e+02	9.05909495e-01
2.58500000e+02	9.05401503e-01
2.59500000e+02	9.04889346e-01
2.60500000e+02	9.04372985e-01
2.61500000e+02	9.03852380e-01
2.62500000e+02	9.03327492e-01
2.63500000e+02	9.02798281e-01
2.64500000e+02	9.02264706e-01
2.65500000e+02	9.01726727e-01
2.66500000e+02	9.01184302e-01
2.67500000e+02	9.00637389e-01
2.68500000e+02	9.00085946e-01
2.69500000e+02	8.99529929e-01
2.70500000e+02	8.98969296e-01
2.71500000e+02	8.98404003e-01
2.72500000e+02	8.97834005e-01
2.73500000e+02	8.97259258e-01
2.74500000e+02	8.96679715e-01
2.75500000e+02	8.96095332e-01
2.76500000e+02	8.95506061e-01
2.77500000e+02	8.94911857e-01
2.78500000e+02	8.94312671e-01
2.79500000e+02	8.93708456e-01
2.80500000e+02	8.93099162e-01
2.81500000e+02	8.92484741e-01
2.82500000e+02	8.91865144e-01
2.83500000e+02	8.91240319e-01
2.84500000e+02	8.90610217e-01
2.85500000e+02	8.89974786e-01
2.86500000e+02	8.89333973e-01
2.87500000e+02	8.88687727e-01
2.88500000e+02	8.88035994e-01
2.89500000e+02	8.87378720e-01
2.90500000e+02	8.86715852e-01
2.91500000e+02	8.86047334e-01
2.92500000e+02	8.85373110e-01
2.93500000e+02	8.84693126e-01
2.94500000e+02	8.84007323e-01
2.95500000e+02	8.83315644e-01
2.96500000e+02	8.82618031e-01
2.97500000e+02	8.81914426e-01
2.98500000e+02	8.81204769e-01
2.99500000e+02	8.80489000e-01
3.00500000e+02	8.79767058e-01
3.01500000e+02	8.79038882e-01
3.02500000e+02	8.78304411e-01
3.03500000e+02	8.77563581e-01
3.04500000e+02	8.76816328e-01
3.05500000e+02	8.76062590e-01
3.06500000e+02	8.75302301e-01
3.07500000e+02	8.74535396e-01
3.08500000e+02	8.73761808e-01
3.09500000e+02	8.72981471e-01
3.10500000e+02	8.72194317e-01
3.11500000e+02	8.71400278e-01
3.12500000e+02	8.70599286e-01
3.13500000e+02	8.69791270e-01
3.14500000e+02	8.68976160e-01
3.15500000e+02	8.68153885e-01
3.16500000e+02	8.67324373e-01
3.17500000e+02	8.66487552e-01
3.18500000e+02	8.65643348e-01
3.19500000e+02	8.64791688e-01
3.20500000e+02	8.63932497e-01
3.21500000e+02	8.63065699e-01
3.22500000e+02	8.62191219e-01
3.23500000e+02	8.61308979e-01
3.24500000e+02	8.60418901e-01
3.25500000e+02	8.59520908e-01
3.26500000e+02	8.58614921e-01
3.27500000e+02	8.57700859e-01
3.28500000e+02	8.56778642e-01
3.29500000e+02	8.55848189e-01
3.30500000e+02	8.54909419e-01
3.31500000e+02	8.53962247e-01
3.32500000e+02	8.53006592e-01
3.33500000e+02	8.52042369e-01
3.34500000e+02	8.51069492e-01
3.35500000e+02	8.50087878e-01
3.36500000e+02	8.49097439e-01
3.37500000e+02	8.48098089e-01
3.38500000e+02	8.47089740e-01
3.39500000e+02	8.46072304e-01
3.40500000e+02	8.45045692e-01
3.41500000e+02	8.44009815e-01
3.42500000e+02	8.42964582e-01
3.43500000e+02	8.41909903e-01
3.44500000e+02	8.40845686e-01
3.45500000e+02	8.39771839e-01
3.46500000e+02	8.38688269e-01
3.47500000e+02	8.37594884e-01
3.48500000e+02	8.36491589e-01
3.49500000e+02	8.35378289e-01
3.50500000e+02	8.34254891e-01
3.51500000e+02	8.33121298e-01
3.52500000e+02	8.31977414e-01
3.53500000e+02	8.30823142e-01
3.54500000e+02	8.29658387e-01
3.55500000e+02	8.28483050e-01
3.56500000e+02	8.27297032e-01
3.57500000e+02	8.26100237e-01
3.58500000e+02	8.24892564e-01
3.59500000e+02	8.23673915e-01
3.60500000e+02	8.22444190e-01
3.61500000e+02	8.21203290e-01
3.62500000e+02	8.19951113e-01
3.63500000e+02	8.18687560e-01
3.64500000e+02	8.17412529e-01
3.65500000e+02	8.16125920e-01
3.66500000e+02	8.14827631e-01
3.67500000e+02	8.13517560e-01
3.68500000e+02	8.12195607e-01
3.69500000e+02	8.10861670e-01
3.70500000e+02	8.09515646e-01
3.71500000e+02	8.08157433e-01
3.72500000e+02	8.06786931e-01
3.73500000e+02	8.05404037e-01
3.74500000e+02	8.04008649e-01
3.75500000e+02	8.02600665e-01
3.76500000e+02	8.01179984e-01
3.77500000e+02	7.99746505e-01
3.78500000e+02	7.98300126e-01
3.79500000e+02	7.96840747e-01
3.80500000e+02	7.95368266e-01
3.81500000e+02	7.93882583e-01
3.82500000e+02	7.92383599e-01
3.83500000e+02	7.90871215e-01
3.84500000e+02	7.89345330e-01
3.85500000e+02	7.87805846e-01
3.86500000e+02	7.86252666e-01
3.87500000e+02	7.84685693e-01
3.88500000e+02	7.83104830e-01
3.89500000e+02	7.81509980e-01
3.90500000e+02	7.79901050e-01
3.91500000e+02	7.78277945e-01
3.92500000e+02	7.76640571e-01
3.93500000e+02	7.74988836e-01
3.94500000e+02	7.73322650e-01
3.95500000e+02	7.71641921e-01
3.96500000e+02	7.69946561e-01
3.97500000e+02	7.68236482e-01
3.98500000e+02	7.66511598e-01
3.99500000e+02	7.64771822e-01
4.00500000e+02	7.63017071e-01
4.01500000e+02	7.61247263e-01
4.02500000e+02	7.59462316e-01
4.03500000e+02	7.57662151e-01
4.04500000e+02	7.55846691e-01
4.05500000e+02	7.54015859e-01
4.06500000e+02	7.52169582e-01
4.07500000e+02	7.50307785e-01
4.08500000e+02	7.48430400e-01
4.09500000e+02	7.46537357e-01
4.10500000e+02	7.44628590e-01
4.11500000e+02	7.42704035e-01
4.12500000e+02	7.40763628e-01
4.13500000e+02	7.38807310e-01
4.14500000e+02	7.36835023e-01
4.15500000e+02	7.34846711e-01
4.16500000e+02	7.32842322e-01
4.17500000e+02	7.30821805e-01
4.18500000e+02	7.28785112e-01
4.19500000e+02	7.26732197e-01
4.20500000e+02	7.24663017e-01
4.21500000e+02	7.22577534e-01
4.22500000e+02	7.20475709e-01
4.23500000e+02	7.18357508e-01
4.24500000e+02	7.16222899e-01
4.25500000e+02	7.14071855e-01
4.26500000e+02	7.11904350e-01
4.27500000e+02	7.09720361e-01
4.28500000e+02	7.07519870e-01
4.29500000e+02	7.05302860e-01
4.30500000e+02	7.03069319e-01
4.31500000e+02	7.00819237e-01
4.32500000e+02	6.98552608e-01
4.33500000e+02	6.96269431e-01
4.34500000e+02	6.93969705e-01
4.35500000e+02	6.91653436e-01
4.36500000e+02	6.89320630e-01
4.37500000e+02	6.86971301e-01
4.38500000e+02	6.84605463e-01
4.39500000e+02	6.82223135e-01
4.40500000e+02	6.79824341e-01
4.41500000e+02	6.77409106e-01
4.42500000e+02	6.74977461e-01
4.43500000e+02	6.72529442e-01
4.44500000e+02	6.70065085e-01
4.45500000e+02	6.67584433e-01
4.46500000e+02	6.65087533e-01
4.47500000e+02	6.62574435e-01
4.48500000e+02	6.60045194e-01
4.49500000e+02	6.57499869e-01
4.50500000e+02	6.54938521e-01
4.51500000e+02	6.52361219e-01
4.52500000e+02	6.49768035e-01
4.53500000e+02	6.47159043e-01
4.54500000e+02	6.44534324e-01
4.55500000e+02	6.41893962e-01
4.56500000e+02	6.39238048e-01
4.57500000e+02	6.36566674e-01
4.58500000e+02	6.33879939e-01
4.59500000e+02	6.31177946e-01
4.60500000e+02	6.28460803e-01
4.61500000e+02	6.25728622e-01
4.62500000e+02	6.22981520e-01
4.63500000e+02	6.20219620e-01
4.64500000e+02	6.17443048e-01
4.65500000e+02	6.14651938e-01
4.66500000e+02	6.11846427e-01
4.67500000e+02	6.09026658e-01
4.68500000e+02	6.06192779e-01
4.69500000e+02	6.03344943e-01
4.70500000e+02	6.00483309e-01
4.71500000e+02	5.97608043e-01
4.72500000e+02	5.94719315e-01
4.73500000e+02	5.91817301e-01
4.74500000e+02	5.88902184e-01
4.75500000e+02	5.85974152e-01
4.76500000e+02	5.83033402e-01
4.77500000e+02	5.80080133e-01
4.78500000e+02	5.77114554e-01
4.79500000e+02	5.74136881e-01
4.80500000e+02	5.71147334e-01
4.81500000e+02	5.68146143e-01
4.82500000e+02	5.65133543e-01
4.83500000e+02	5.62109779e-01
4.84500000e+02	5.59075102e-01
4.85500000e+02	5.56029771e-01
4.86500000e+02	5.52974053e-01
4.87500000e+02	5.49908224e-01
4.88500000e+02	5.46832569e-01
4.89500000e+02	5.43747379e-01
4.90500000e+02	5.40652957e-01
4.91500000e+02	5.37549614e-01
4.92500000e+02	5.34437670e-01
4.93500000e+02	5.31317456e-01
4.94500000e+02	5.28189310e-01
4.95500000e+02	5.25053584e-01
4.96500000e+02	5.21910637e-01
4.97500000e+02	5.18760840e-01
4.98500000e+02	5.15604576e-01
4.99500000e+02	5.12442236e-01
5.00500000e+02	5.09274224e-01
5.01500000e+02	5.06100955e-01
5.02500000e+02	5.02922857e-01
5.03500000e+02	4.99740368e-01
5.04500000e+02	4.96553937e-01
5.05500000e+02	4.93364028e-01
5.06500000e+02	4.90171116e-01
5.07500000e+02	4.86975686e-01
5.08500000e+02	4.83778239e-01
5.09500000e+02	4.80579287e-01
5.10500000e+02	4.77379352e-01
5.11500000e+02	4.74178974e-01
5.12500000e+02	4.70978700e-01
5.13500000e+02	4.67779092e-01
5.14500000e+02	4.64580725e-01
5.15500000e+02	4.61384184e-01
5.16500000e+02	4.58190068e-01
5.17500000e+02	4.54998988e-01
5.18500000e+02	4.51811565e-01
5.19500000e+02	4.48628432e-01
5.20500000e+02	4.45450234e-01
5.21500000e+02	4.42277625e-01
5.22500000e+02	4.39111270e-01
5.23500000e+02	4.35951844e-01
5.24500000e+02	4.32800031e-01
5.25500000e+02	4.29656522e-01
5.26500000e+02	4.26522019e-01
5.27500000e+02	4.23397228e-01
5.28500000e+02	4.20282864e-01
5.29500000e+02	4.17179646e-01
5.30500000e+02	4.14088298e-01
5.31500000e+02	4.11009549e-01
5.32500000e+02	4.07944129e-01
5.33500000e+02	4.04892771e-01
5.34500000e+02	4.01856210e-01
5.35500000e+02	3.98835179e-01
5.36500000e+02	3.95830409e-01
5.37500000e+02	3.92842631e-01
5.38500000e+02	3.89872570e-01
5.39500000e+02	3.86920946e-01
5.40500000e+02	3.83988475e-01
5.41500000e+02	3.81075862e-01
5.42500000e+02	3.78183806e-01
5.43500000e+02	3.75312994e-01
5.44500000e+02	3.72464103e-01
5.45500000e+02	3.69637795e-01
5.46500000e+02	3.66834721e-01
5.47500000e+02	3.64055513e-01
5.48500000e+02	3.61300790e-01
5.49500000e+02	3.58571150e-01
5.50500000e+02	3.55867175e-01
5.51500000e+02	3.53189425e-01
5.52500000e+02	3.50538439e-01
5.53500000e+02	3.47914733e-01
5.54500000e+02	3.45318803e-01
5.55500000e+02	3.42751117e-01
5.56500000e+02	3.40212121e-01
5.57500000e+02	3.37702234e-01
5.58500000e+02	3.35221848e-01
5.59500000e+02	3.32771330e-01
5.60500000e+02	3.30351018e-01
5.61500000e+02	3.27961223e-01
5.62500000e+02	3.25602228e-01
5.63500000e+02	3.23274287e-01
5.64500000e+02	3.20977625e-01
5.65500000e+02	3.18712441e-01
5.66500000e+02	3.16478903e-01
5.67500000e+02	3.14277151e-01
5.68500000e+02	3.12107298e-01
5.69500000e+02	3.09969429e-01
5.70500000e+02	3.07863599e-01
5.71500000e+02	3.05789840e-01
5.72500000e+02	3.03748154e-01
5.73500000e+02	3.01738520e-01
5.74500000e+02	2.99760889e-01
5.75500000e+02	2.97815190e-01
5.76500000e+02	2.95901326e-01
5.77500000e+02	2.94019179e-01
5.78500000e+02	2.92168608e-01
5.79500000e+02	2.90349450e-01
5.80500000e+02	2.88561524e-01
5.81500000e+02	2.86804628e-01
5.82500000e+02	2.85078542e-01
5.83500000e+02	2.83383028e-01
5.84500000e+02	2.81717833e-01
5.85500000e+02	2.80082688e-01
5.86500000e+02	2.78477309e-01
5.87500000e+02	2.76901400e-01
5.88500000e+02	2.75354652e-01
5.89500000e+02	2.73836744e-01
5.90500000e+02	2.72347346e-01
5.91500000e+02	2.70886117e-01
5.92500000e+02	2.69452709e-01
5.93500000e+02	2.68046765e-01
5.94500000e+02	2.66667923e-01
5.95500000e+02	2.65315813e-01
5.96500000e+02	2.63990062e-01
5.97500000e+02	2.62690292e-01
5.98500000e+02	2.61416120e-01
5.99500000e+02	2.60167164e-01
6.00500000e+02	2.58943035e-01
6.01500000e+02	2.57743348e-01
6.02500000e+02	2.56567713e-01
6.03500000e+02	2.55415741e-01
6.04500000e+02	2.54287046e-01
6.05500000e+02	2.53181239e-01
6.06500000e+02	2.52097936e-01
6.07500000e+02	2.51036752e-01
6.08500000e+02	2.49997306e-01
6.09500000e+02	2.48979221e-01
6.10500000e+02	2.47982121e-01
6.11500000e+02	2.47005634e-01
6.12500000e+02	2.46049393e-01
6.13500000e+02	2.45113034e-01
6.14500000e+02	2.44196198e-01
6.15500000e+02	2.43298531e-01
6.16500000e+02	2.42419684e-01
6.17500000e+02	2.41559311e-01
6.18500000e+02	2.40717074e-01
6.19500000e+02	2.39892639e-01
6.20500000e+02	2.39085678e-01
6.21500000e+02	2.38295869e-01
6.22500000e+02	2.37522896e-01
6.23500000e+02	2.36766448e-01
6.24500000e+02	2.36026220e-01
6.25500000e+02	2.35301914e-01
6.26500000e+02	2.34593236e-01
6.27500000e+02	2.33899902e-01
6.28500000e+02	2.33221630e-01
6.29500000e+02	2.32558146e-01
6.30500000e+02	2.31909183e-01
6.31500000e+02	2.31274478e-01
6.32500000e+02	2.30653777e-01
6.33500000e+02	2.30046828e-01
6.34500000e+02	2.29453388e-01
6.35500000e+02	2.28873221e-01
6.36500000e+02	2.28306093e-01
6.37500000e+02	2.27751780e-01
6.38500000e+02	2.27210061e-01
6.39500000e+02	2.26680722e-01
6.40500000e+02	2.26163555e-01
6.41500000e+02	2.25658357e-01
6.42500000e+02	2.25164930e-01
6.43500000e+02	2.24683084e-01
6.44500000e+02	2.24212631e-01
6.45500000e+02	2.23753391e-01
6.46500000e+02	2.23305188e-01
6.47500000e+02	2.22867851e-01
6.48500000e+02	2.22441215e-01
6.49500000e+02	2.22025119e-01
6.50500000e+02	2.21619409e-01
6.51500000e+02	2.21223932e-01
6.52500000e+02	2.20838544e-01
6.53500000e+02	2.20463102e-01
6.54500000e+02	2.20097471e-01
6.55500000e+02	2.19741517e-01
6.56500000e+02	2.19395114e-01
6.57500000e+02	2.19058136e-01
6.58500000e+02	2.18730466e-01
6.59500000e+02	2.18411988e-01
6.60500000e+02	2.18102590e-01
