# Profil de ElecX au temps 1.800999999999969e-11 
# simu : /Volumes/MERCURE/JOBS/Zeq1_tanh_50mic_5e20_B0_20ps/GNU/ElecX@y-c.set
# col 0 : abscisse (um)
# col 1 : ElecX (V/m)
0.00000000e+00	0.00000000e+00
1.00000000e+00	3.90846381e+03
2.00000000e+00	3.25540108e+03
3.00000000e+00	4.52898322e+03
4.00000000e+00	7.43734235e+03
5.00000000e+00	9.16769612e+03
6.00000000e+00	1.09792752e+04
7.00000000e+00	1.28081785e+04
8.00000000e+00	1.46400886e+04
9.00000000e+00	1.64734831e+04
1.00000000e+01	1.83082849e+04
1.10000000e+01	2.01446203e+04
1.20000000e+01	2.19825819e+04
1.30000000e+01	2.38224132e+04
1.40000000e+01	2.56641300e+04
1.50000000e+01	2.75080503e+04
1.60000000e+01	2.93542135e+04
1.70000000e+01	3.12028016e+04
1.80000000e+01	3.30539114e+04
1.90000000e+01	3.49077867e+04
2.00000000e+01	3.67645319e+04
2.10000000e+01	3.86243713e+04
2.20000000e+01	4.04872061e+04
2.30000000e+01	4.23534912e+04
2.40000000e+01	4.42232621e+04
2.50000000e+01	4.60966731e+04
2.60000000e+01	4.79738200e+04
2.70000000e+01	4.98549630e+04
2.80000000e+01	5.17400303e+04
2.90000000e+01	5.36295808e+04
3.00000000e+01	5.55233746e+04
3.10000000e+01	5.74217907e+04
3.20000000e+01	5.93248877e+04
3.30000000e+01	6.12327607e+04
3.40000000e+01	6.31457629e+04
3.50000000e+01	6.50639244e+04
3.60000000e+01	6.69873743e+04
3.70000000e+01	6.89161933e+04
3.80000000e+01	7.08508922e+04
3.90000000e+01	7.27912371e+04
4.00000000e+01	7.47374117e+04
4.10000000e+01	7.66898895e+04
4.20000000e+01	7.86486383e+04
4.30000000e+01	8.06135910e+04
4.40000000e+01	8.25852186e+04
4.50000000e+01	8.45638318e+04
4.60000000e+01	8.65489017e+04
4.70000000e+01	8.85412650e+04
4.80000000e+01	9.05409681e+04
4.90000000e+01	9.25477164e+04
5.00000000e+01	9.45623228e+04
5.10000000e+01	9.65843927e+04
5.20000000e+01	9.86144817e+04
5.30000000e+01	1.00652432e+05
5.40000000e+01	1.02698784e+05
5.50000000e+01	1.04753308e+05
5.60000000e+01	1.06816360e+05
5.70000000e+01	1.08888239e+05
5.80000000e+01	1.10968793e+05
5.90000000e+01	1.13058454e+05
6.00000000e+01	1.15157288e+05
6.10000000e+01	1.17265429e+05
6.20000000e+01	1.19383298e+05
6.30000000e+01	1.21510376e+05
6.40000000e+01	1.23647956e+05
6.50000000e+01	1.25795041e+05
6.60000000e+01	1.27952550e+05
6.70000000e+01	1.30120630e+05
6.80000000e+01	1.32298864e+05
6.90000000e+01	1.34488137e+05
7.00000000e+01	1.36688191e+05
7.10000000e+01	1.38899474e+05
7.20000000e+01	1.41121903e+05
7.30000000e+01	1.43355673e+05
7.40000000e+01	1.45601444e+05
7.50000000e+01	1.47858777e+05
7.60000000e+01	1.50128062e+05
7.70000000e+01	1.52409705e+05
7.80000000e+01	1.54703633e+05
7.90000000e+01	1.57010160e+05
8.00000000e+01	1.59329510e+05
8.10000000e+01	1.61661692e+05
8.20000000e+01	1.64007039e+05
8.30000000e+01	1.66365876e+05
8.40000000e+01	1.68737982e+05
8.50000000e+01	1.71124098e+05
8.60000000e+01	1.73524014e+05
8.70000000e+01	1.75937988e+05
8.80000000e+01	1.78366558e+05
8.90000000e+01	1.80809367e+05
9.00000000e+01	1.83267155e+05
9.10000000e+01	1.85739877e+05
9.20000000e+01	1.88227628e+05
9.30000000e+01	1.90730946e+05
9.40000000e+01	1.93249728e+05
9.50000000e+01	1.95784424e+05
9.60000000e+01	1.98335247e+05
9.70000000e+01	2.00901964e+05
9.80000000e+01	2.03485588e+05
9.90000000e+01	2.06085823e+05
1.00000000e+02	2.08702718e+05
1.01000000e+02	2.11337154e+05
1.02000000e+02	2.13988810e+05
1.03000000e+02	2.16658097e+05
1.04000000e+02	2.19345271e+05
1.05000000e+02	2.22050700e+05
1.06000000e+02	2.24774275e+05
1.07000000e+02	2.27516601e+05
1.08000000e+02	2.30277749e+05
1.09000000e+02	2.33057960e+05
1.10000000e+02	2.35857648e+05
1.11000000e+02	2.38676853e+05
1.12000000e+02	2.41515880e+05
1.13000000e+02	2.44375253e+05
1.14000000e+02	2.47254886e+05
1.15000000e+02	2.50155144e+05
1.16000000e+02	2.53076503e+05
1.17000000e+02	2.56018985e+05
1.18000000e+02	2.58983008e+05
1.19000000e+02	2.61968823e+05
1.20000000e+02	2.64976617e+05
1.21000000e+02	2.68006895e+05
1.22000000e+02	2.71059763e+05
1.23000000e+02	2.74135567e+05
1.24000000e+02	2.77234626e+05
1.25000000e+02	2.80357293e+05
1.26000000e+02	2.83503714e+05
1.27000000e+02	2.86674357e+05
1.28000000e+02	2.89869547e+05
1.29000000e+02	2.93089370e+05
1.30000000e+02	2.96334448e+05
1.31000000e+02	2.99604965e+05
1.32000000e+02	3.02901345e+05
1.33000000e+02	3.06223353e+05
1.34000000e+02	3.09572635e+05
1.35000000e+02	3.12947882e+05
1.36000000e+02	3.16350783e+05
1.37000000e+02	3.19781019e+05
1.38000000e+02	3.23239079e+05
1.39000000e+02	3.26725333e+05
1.40000000e+02	3.30240105e+05
1.41000000e+02	3.33783926e+05
1.42000000e+02	3.37356909e+05
1.43000000e+02	3.40959886e+05
1.44000000e+02	3.44592404e+05
1.45000000e+02	3.48255826e+05
1.46000000e+02	3.51949900e+05
1.47000000e+02	3.55675370e+05
1.48000000e+02	3.59432074e+05
1.49000000e+02	3.63221463e+05
1.50000000e+02	3.67042869e+05
1.51000000e+02	3.70897167e+05
1.52000000e+02	3.74784989e+05
1.53000000e+02	3.78706435e+05
1.54000000e+02	3.82662142e+05
1.55000000e+02	3.86652294e+05
1.56000000e+02	3.90677627e+05
1.57000000e+02	3.94738411e+05
1.58000000e+02	3.98835187e+05
1.59000000e+02	4.02968401e+05
1.60000000e+02	4.07138403e+05
1.61000000e+02	4.11345886e+05
1.62000000e+02	4.15591291e+05
1.63000000e+02	4.19874876e+05
1.64000000e+02	4.24197268e+05
1.65000000e+02	4.28558932e+05
1.66000000e+02	4.32960759e+05
1.67000000e+02	4.37402793e+05
1.68000000e+02	4.41885220e+05
1.69000000e+02	4.46409646e+05
1.70000000e+02	4.50975906e+05
1.71000000e+02	4.55584057e+05
1.72000000e+02	4.60235981e+05
1.73000000e+02	4.64930895e+05
1.74000000e+02	4.69670066e+05
1.75000000e+02	4.74454176e+05
1.76000000e+02	4.79282888e+05
1.77000000e+02	4.84158323e+05
1.78000000e+02	4.89079163e+05
1.79000000e+02	4.94048073e+05
1.80000000e+02	4.99063399e+05
1.81000000e+02	5.04128252e+05
1.82000000e+02	5.09240634e+05
1.83000000e+02	5.14403609e+05
1.84000000e+02	5.19615770e+05
1.85000000e+02	5.24879302e+05
1.86000000e+02	5.30193902e+05
1.87000000e+02	5.35560383e+05
1.88000000e+02	5.40980211e+05
1.89000000e+02	5.46452446e+05
1.90000000e+02	5.51979517e+05
1.91000000e+02	5.57561167e+05
1.92000000e+02	5.63197684e+05
1.93000000e+02	5.68891092e+05
1.94000000e+02	5.74640918e+05
1.95000000e+02	5.80448361e+05
1.96000000e+02	5.86314214e+05
1.97000000e+02	5.92239195e+05
1.98000000e+02	5.98223643e+05
1.99000000e+02	6.04268980e+05
2.00000000e+02	6.10375730e+05
2.01000000e+02	6.16543972e+05
2.02000000e+02	6.22775593e+05
2.03000000e+02	6.29070905e+05
2.04000000e+02	6.35430666e+05
2.05000000e+02	6.41855513e+05
2.06000000e+02	6.48346680e+05
2.07000000e+02	6.54904722e+05
2.08000000e+02	6.61530802e+05
2.09000000e+02	6.68225090e+05
2.10000000e+02	6.74989297e+05
2.11000000e+02	6.81823879e+05
2.12000000e+02	6.88729712e+05
2.13000000e+02	6.95707720e+05
2.14000000e+02	7.02758878e+05
2.15000000e+02	7.09884182e+05
2.16000000e+02	7.17084304e+05
2.17000000e+02	7.24360510e+05
2.18000000e+02	7.31713302e+05
2.19000000e+02	7.39144114e+05
2.20000000e+02	7.46653539e+05
2.21000000e+02	7.54242970e+05
2.22000000e+02	7.61912926e+05
2.23000000e+02	7.69664861e+05
2.24000000e+02	7.77499538e+05
2.25000000e+02	7.85417842e+05
2.26000000e+02	7.93421278e+05
2.27000000e+02	8.01510538e+05
2.28000000e+02	8.09686475e+05
2.29000000e+02	8.17950939e+05
2.30000000e+02	8.26304359e+05
2.31000000e+02	8.34748142e+05
2.32000000e+02	8.43283307e+05
2.33000000e+02	8.51910911e+05
2.34000000e+02	8.60632187e+05
2.35000000e+02	8.69448299e+05
2.36000000e+02	8.78360395e+05
2.37000000e+02	8.87369610e+05
2.38000000e+02	8.96477192e+05
2.39000000e+02	9.05684338e+05
2.40000000e+02	9.14992252e+05
2.41000000e+02	9.24402155e+05
2.42000000e+02	9.33915342e+05
2.43000000e+02	9.43533007e+05
2.44000000e+02	9.53256474e+05
2.45000000e+02	9.63087016e+05
2.46000000e+02	9.73025889e+05
2.47000000e+02	9.83074454e+05
2.48000000e+02	9.93233994e+05
2.49000000e+02	1.00350596e+06
2.50000000e+02	1.01389163e+06
2.51000000e+02	1.02439239e+06
2.52000000e+02	1.03500962e+06
2.53000000e+02	1.04574463e+06
2.54000000e+02	1.05659899e+06
2.55000000e+02	1.06757405e+06
2.56000000e+02	1.07867129e+06
2.57000000e+02	1.08989215e+06
2.58000000e+02	1.10123810e+06
2.59000000e+02	1.11271062e+06
2.60000000e+02	1.12431123e+06
2.61000000e+02	1.13604143e+06
2.62000000e+02	1.14790274e+06
2.63000000e+02	1.15989674e+06
2.64000000e+02	1.17202498e+06
2.65000000e+02	1.18428904e+06
2.66000000e+02	1.19669050e+06
2.67000000e+02	1.20923099e+06
2.68000000e+02	1.22191213e+06
2.69000000e+02	1.23473551e+06
2.70000000e+02	1.24770287e+06
2.71000000e+02	1.26081583e+06
2.72000000e+02	1.27407607e+06
2.73000000e+02	1.28748531e+06
2.74000000e+02	1.30104525e+06
2.75000000e+02	1.31475758e+06
2.76000000e+02	1.32862402e+06
2.77000000e+02	1.34264658e+06
2.78000000e+02	1.35682688e+06
2.79000000e+02	1.37116671e+06
2.80000000e+02	1.38566788e+06
2.81000000e+02	1.40033223e+06
2.82000000e+02	1.41516160e+06
2.83000000e+02	1.43015785e+06
2.84000000e+02	1.44532285e+06
2.85000000e+02	1.46065848e+06
2.86000000e+02	1.47616667e+06
2.87000000e+02	1.49184932e+06
2.88000000e+02	1.50770838e+06
2.89000000e+02	1.52374580e+06
2.90000000e+02	1.53996354e+06
2.91000000e+02	1.55636360e+06
2.92000000e+02	1.57294796e+06
2.93000000e+02	1.58971865e+06
2.94000000e+02	1.60667769e+06
2.95000000e+02	1.62382713e+06
2.96000000e+02	1.64116903e+06
2.97000000e+02	1.65870546e+06
2.98000000e+02	1.67643852e+06
2.99000000e+02	1.69437032e+06
3.00000000e+02	1.71250296e+06
3.01000000e+02	1.73083859e+06
3.02000000e+02	1.74937936e+06
3.03000000e+02	1.76812743e+06
3.04000000e+02	1.78708499e+06
3.05000000e+02	1.80625421e+06
3.06000000e+02	1.82563732e+06
3.07000000e+02	1.84523653e+06
3.08000000e+02	1.86505408e+06
3.09000000e+02	1.88509221e+06
3.10000000e+02	1.90535320e+06
3.11000000e+02	1.92583931e+06
3.12000000e+02	1.94655283e+06
3.13000000e+02	1.96749607e+06
3.14000000e+02	1.98867135e+06
3.15000000e+02	2.01008098e+06
3.16000000e+02	2.03172731e+06
3.17000000e+02	2.05361269e+06
3.18000000e+02	2.07573949e+06
3.19000000e+02	2.09811008e+06
3.20000000e+02	2.12072685e+06
3.21000000e+02	2.14359220e+06
3.22000000e+02	2.16670855e+06
3.23000000e+02	2.19007830e+06
3.24000000e+02	2.21370389e+06
3.25000000e+02	2.23758777e+06
3.26000000e+02	2.26173239e+06
3.27000000e+02	2.28614020e+06
3.28000000e+02	2.31081369e+06
3.29000000e+02	2.33575533e+06
3.30000000e+02	2.36096760e+06
3.31000000e+02	2.38645302e+06
3.32000000e+02	2.41221408e+06
3.33000000e+02	2.43825331e+06
3.34000000e+02	2.46457321e+06
3.35000000e+02	2.49117633e+06
3.36000000e+02	2.51806520e+06
3.37000000e+02	2.54524235e+06
3.38000000e+02	2.57271035e+06
3.39000000e+02	2.60047174e+06
3.40000000e+02	2.62852909e+06
3.41000000e+02	2.65688495e+06
3.42000000e+02	2.68554191e+06
3.43000000e+02	2.71450254e+06
3.44000000e+02	2.74376941e+06
3.45000000e+02	2.77334511e+06
3.46000000e+02	2.80323222e+06
3.47000000e+02	2.83343334e+06
3.48000000e+02	2.86395104e+06
3.49000000e+02	2.89478794e+06
3.50000000e+02	2.92594661e+06
3.51000000e+02	2.95742966e+06
3.52000000e+02	2.98923969e+06
3.53000000e+02	3.02137928e+06
3.54000000e+02	3.05385104e+06
3.55000000e+02	3.08665756e+06
3.56000000e+02	3.11980143e+06
3.57000000e+02	3.15328526e+06
3.58000000e+02	3.18711163e+06
3.59000000e+02	3.22128312e+06
3.60000000e+02	3.25580234e+06
3.61000000e+02	3.29067185e+06
3.62000000e+02	3.32589423e+06
3.63000000e+02	3.36147207e+06
3.64000000e+02	3.39740793e+06
3.65000000e+02	3.43370437e+06
3.66000000e+02	3.47036395e+06
3.67000000e+02	3.50738923e+06
3.68000000e+02	3.54478275e+06
3.69000000e+02	3.58254704e+06
3.70000000e+02	3.62068464e+06
3.71000000e+02	3.65919807e+06
3.72000000e+02	3.69808984e+06
3.73000000e+02	3.73736245e+06
3.74000000e+02	3.77701839e+06
3.75000000e+02	3.81706016e+06
3.76000000e+02	3.85749021e+06
3.77000000e+02	3.89831102e+06
3.78000000e+02	3.93952502e+06
3.79000000e+02	3.98113465e+06
3.80000000e+02	4.02314234e+06
3.81000000e+02	4.06555049e+06
3.82000000e+02	4.10836150e+06
3.83000000e+02	4.15157774e+06
3.84000000e+02	4.19520158e+06
3.85000000e+02	4.23923536e+06
3.86000000e+02	4.28368142e+06
3.87000000e+02	4.32854206e+06
3.88000000e+02	4.37381957e+06
3.89000000e+02	4.41951623e+06
3.90000000e+02	4.46563430e+06
3.91000000e+02	4.51217600e+06
3.92000000e+02	4.55914355e+06
3.93000000e+02	4.60653913e+06
3.94000000e+02	4.65436490e+06
3.95000000e+02	4.70262300e+06
3.96000000e+02	4.75131554e+06
3.97000000e+02	4.80044461e+06
3.98000000e+02	4.85001227e+06
3.99000000e+02	4.90002053e+06
4.00000000e+02	4.95047140e+06
4.01000000e+02	5.00136684e+06
4.02000000e+02	5.05270877e+06
4.03000000e+02	5.10449909e+06
4.04000000e+02	5.15673966e+06
4.05000000e+02	5.20943229e+06
4.06000000e+02	5.26257877e+06
4.07000000e+02	5.31618083e+06
4.08000000e+02	5.37024015e+06
4.09000000e+02	5.42475839e+06
4.10000000e+02	5.47973714e+06
4.11000000e+02	5.53517794e+06
4.12000000e+02	5.59108227e+06
4.13000000e+02	5.64745158e+06
4.14000000e+02	5.70428721e+06
4.15000000e+02	5.76159049e+06
4.16000000e+02	5.81936265e+06
4.17000000e+02	5.87760485e+06
4.18000000e+02	5.93631818e+06
4.19000000e+02	5.99550365e+06
4.20000000e+02	6.05516218e+06
4.21000000e+02	6.11529460e+06
4.22000000e+02	6.17590165e+06
4.23000000e+02	6.23698396e+06
4.24000000e+02	6.29854207e+06
4.25000000e+02	6.36057637e+06
4.26000000e+02	6.42308717e+06
4.27000000e+02	6.48607461e+06
4.28000000e+02	6.54953873e+06
4.29000000e+02	6.61347939e+06
4.30000000e+02	6.67789632e+06
4.31000000e+02	6.74278907e+06
4.32000000e+02	6.80815701e+06
4.33000000e+02	6.87399934e+06
4.34000000e+02	6.94031505e+06
4.35000000e+02	7.00710290e+06
4.36000000e+02	7.07436144e+06
4.37000000e+02	7.14208899e+06
4.38000000e+02	7.21028359e+06
4.39000000e+02	7.27894302e+06
4.40000000e+02	7.34806475e+06
4.41000000e+02	7.41764596e+06
4.42000000e+02	7.48768349e+06
4.43000000e+02	7.55817381e+06
4.44000000e+02	7.62911305e+06
4.45000000e+02	7.70049690e+06
4.46000000e+02	7.77232064e+06
4.47000000e+02	7.84457911e+06
4.48000000e+02	7.91726664e+06
4.49000000e+02	7.99037706e+06
4.50000000e+02	8.06390365e+06
4.51000000e+02	8.13783910e+06
4.52000000e+02	8.21217547e+06
4.53000000e+02	8.28690419e+06
4.54000000e+02	8.36201595e+06
4.55000000e+02	8.43750071e+06
4.56000000e+02	8.51334764e+06
4.57000000e+02	8.58954504e+06
4.58000000e+02	8.66608035e+06
4.59000000e+02	8.74294002e+06
4.60000000e+02	8.82010949e+06
4.61000000e+02	8.89757314e+06
4.62000000e+02	8.97531419e+06
4.63000000e+02	9.05331466e+06
4.64000000e+02	9.13155526e+06
4.65000000e+02	9.21001536e+06
4.66000000e+02	9.28867287e+06
4.67000000e+02	9.36750416e+06
4.68000000e+02	9.44648400e+06
4.69000000e+02	9.52558540e+06
4.70000000e+02	9.60477959e+06
4.71000000e+02	9.68403584e+06
4.72000000e+02	9.76332143e+06
4.73000000e+02	9.84260144e+06
4.74000000e+02	9.92183871e+06
4.75000000e+02	1.00009937e+07
4.76000000e+02	1.00800243e+07
4.77000000e+02	1.01588858e+07
4.78000000e+02	1.02375306e+07
4.79000000e+02	1.03159083e+07
4.80000000e+02	1.03939652e+07
4.81000000e+02	1.04716446e+07
4.82000000e+02	1.05488863e+07
4.83000000e+02	1.06256264e+07
4.84000000e+02	1.07017973e+07
4.85000000e+02	1.07773278e+07
4.86000000e+02	1.08521423e+07
4.87000000e+02	1.09261611e+07
4.88000000e+02	1.09993000e+07
4.89000000e+02	1.10714705e+07
4.90000000e+02	1.11425790e+07
4.91000000e+02	1.12125273e+07
4.92000000e+02	1.12812121e+07
4.93000000e+02	1.13485248e+07
4.94000000e+02	1.14143517e+07
4.95000000e+02	1.14785734e+07
4.96000000e+02	1.15410653e+07
4.97000000e+02	1.16016969e+07
4.98000000e+02	1.16603323e+07
4.99000000e+02	1.17168298e+07
5.00000000e+02	1.17710422e+07
5.01000000e+02	1.18228164e+07
5.02000000e+02	1.18719940e+07
5.03000000e+02	1.19184112e+07
5.04000000e+02	1.19618991e+07
5.05000000e+02	1.20022838e+07
5.06000000e+02	1.20393867e+07
5.07000000e+02	1.20730252e+07
5.08000000e+02	1.21030129e+07
5.09000000e+02	1.21291603e+07
5.10000000e+02	1.21512753e+07
5.11000000e+02	1.21691641e+07
5.12000000e+02	1.21826320e+07
5.13000000e+02	1.21914843e+07
5.14000000e+02	1.21955274e+07
5.15000000e+02	1.21945701e+07
5.16000000e+02	1.21884247e+07
5.17000000e+02	1.21769081e+07
5.18000000e+02	1.21598441e+07
5.19000000e+02	1.21370642e+07
5.20000000e+02	1.21084095e+07
5.21000000e+02	1.20737325e+07
5.22000000e+02	1.20328987e+07
5.23000000e+02	1.19857888e+07
5.24000000e+02	1.19323000e+07
5.25000000e+02	1.18723482e+07
5.26000000e+02	1.18058694e+07
5.27000000e+02	1.17328218e+07
5.28000000e+02	1.16531872e+07
5.29000000e+02	1.15669724e+07
5.30000000e+02	1.14742105e+07
5.31000000e+02	1.13749619e+07
5.32000000e+02	1.12693154e+07
5.33000000e+02	1.11573883e+07
5.34000000e+02	1.10393272e+07
5.35000000e+02	1.09153074e+07
5.36000000e+02	1.07855328e+07
5.37000000e+02	1.06502350e+07
5.38000000e+02	1.05096724e+07
5.39000000e+02	1.03641285e+07
5.40000000e+02	1.02139102e+07
5.41000000e+02	1.00593456e+07
5.42000000e+02	9.90078181e+06
5.43000000e+02	9.73858222e+06
5.44000000e+02	9.57312357e+06
5.45000000e+02	9.40479302e+06
5.46000000e+02	9.23398504e+06
5.47000000e+02	9.06109822e+06
5.48000000e+02	8.88653210e+06
5.49000000e+02	8.71068409e+06
5.50000000e+02	8.53394644e+06
5.51000000e+02	8.35670339e+06
5.52000000e+02	8.17932849e+06
5.53000000e+02	8.00218223e+06
5.54000000e+02	7.82560978e+06
5.55000000e+02	7.64993919e+06
5.56000000e+02	7.47547972e+06
5.57000000e+02	7.30252062e+06
5.58000000e+02	7.13133007e+06
5.59000000e+02	6.96215455e+06
5.60000000e+02	6.79521842e+06
5.61000000e+02	6.63072375e+06
5.62000000e+02	6.46885050e+06
5.63000000e+02	6.30975678e+06
5.64000000e+02	6.15357947e+06
5.65000000e+02	6.00043486e+06
5.66000000e+02	5.85041956e+06
5.67000000e+02	5.70361144e+06
5.68000000e+02	5.56007069e+06
5.69000000e+02	5.41984101e+06
5.70000000e+02	5.28295072e+06
5.71000000e+02	5.14941401e+06
5.72000000e+02	5.01923215e+06
5.73000000e+02	4.89239465e+06
5.74000000e+02	4.76888047e+06
5.75000000e+02	4.64865914e+06
5.76000000e+02	4.53169188e+06
5.77000000e+02	4.41793260e+06
5.78000000e+02	4.30732891e+06
5.79000000e+02	4.19982304e+06
5.80000000e+02	4.09535268e+06
5.81000000e+02	3.99385178e+06
5.82000000e+02	3.89525128e+06
5.83000000e+02	3.79947975e+06
5.84000000e+02	3.70646402e+06
5.85000000e+02	3.61612970e+06
5.86000000e+02	3.52840164e+06
5.87000000e+02	3.44320441e+06
5.88000000e+02	3.36046262e+06
5.89000000e+02	3.28010128e+06
5.90000000e+02	3.20204609e+06
5.91000000e+02	3.12622365e+06
5.92000000e+02	3.05256172e+06
5.93000000e+02	2.98098934e+06
5.94000000e+02	2.91143701e+06
5.95000000e+02	2.84383679e+06
5.96000000e+02	2.77812242e+06
5.97000000e+02	2.71422934e+06
5.98000000e+02	2.65209480e+06
5.99000000e+02	2.59165787e+06
6.00000000e+02	2.53285942e+06
6.01000000e+02	2.47564222e+06
6.02000000e+02	2.41995086e+06
6.03000000e+02	2.36573176e+06
6.04000000e+02	2.31293315e+06
6.05000000e+02	2.26150507e+06
6.06000000e+02	2.21139928e+06
6.07000000e+02	2.16256929e+06
6.08000000e+02	2.11497026e+06
6.09000000e+02	2.06855900e+06
6.10000000e+02	2.02329390e+06
6.11000000e+02	1.97913488e+06
6.12000000e+02	1.93604337e+06
6.13000000e+02	1.89398224e+06
6.14000000e+02	1.85291574e+06
6.15000000e+02	1.81280947e+06
6.16000000e+02	1.77363034e+06
6.17000000e+02	1.73534650e+06
6.18000000e+02	1.69792728e+06
6.19000000e+02	1.66134320e+06
6.20000000e+02	1.62556588e+06
6.21000000e+02	1.59056798e+06
6.22000000e+02	1.55632321e+06
6.23000000e+02	1.52280625e+06
6.24000000e+02	1.48999273e+06
6.25000000e+02	1.45785917e+06
6.26000000e+02	1.42638295e+06
6.27000000e+02	1.39554231e+06
6.28000000e+02	1.36531625e+06
6.29000000e+02	1.33568454e+06
6.30000000e+02	1.30662768e+06
6.31000000e+02	1.27812687e+06
6.32000000e+02	1.25016397e+06
6.33000000e+02	1.22272148e+06
6.34000000e+02	1.19578253e+06
6.35000000e+02	1.16933080e+06
6.36000000e+02	1.14335057e+06
6.37000000e+02	1.11782663e+06
6.38000000e+02	1.09274428e+06
6.39000000e+02	1.06808934e+06
6.40000000e+02	1.04384808e+06
6.41000000e+02	1.02000722e+06
6.42000000e+02	9.96553915e+05
6.43000000e+02	9.73475737e+05
6.44000000e+02	9.50760649e+05
6.45000000e+02	9.28396992e+05
6.46000000e+02	9.06373471e+05
6.47000000e+02	8.84679134e+05
6.48000000e+02	8.63303365e+05
6.49000000e+02	8.42235860e+05
6.50000000e+02	8.21466622e+05
6.51000000e+02	8.00985943e+05
6.52000000e+02	7.80784390e+05
6.53000000e+02	7.60852798e+05
6.54000000e+02	7.41182252e+05
6.55000000e+02	7.21764083e+05
6.56000000e+02	7.02589849e+05
6.57000000e+02	6.83651330e+05
6.58000000e+02	6.64940516e+05
6.59000000e+02	6.46449596e+05
