# Profil de ElecX au temps 1.300000000000017e-11 
# simu : /Volumes/MERCURE/JOBS/Zeq1_tanh_50mic_5e20_B0_20ps/GNU/ElecX@y-c.set
# col 0 : abscisse (um)
# col 1 : ElecX (V/m)
0.00000000e+00	0.00000000e+00
1.00000000e+00	3.05970186e+03
2.00000000e+00	2.81308694e+03
3.00000000e+00	3.96489745e+03
4.00000000e+00	6.29626858e+03
5.00000000e+00	7.77842330e+03
6.00000000e+00	9.31820976e+03
7.00000000e+00	1.08703579e+04
8.00000000e+00	1.24246613e+04
9.00000000e+00	1.39800224e+04
1.00000000e+01	1.55363789e+04
1.10000000e+01	1.70938108e+04
1.20000000e+01	1.86524211e+04
1.30000000e+01	2.02123151e+04
1.40000000e+01	2.17735988e+04
1.50000000e+01	2.33363769e+04
1.60000000e+01	2.49007546e+04
1.70000000e+01	2.64668366e+04
1.80000000e+01	2.80347272e+04
1.90000000e+01	2.96045311e+04
2.00000000e+01	3.11763525e+04
2.10000000e+01	3.27502955e+04
2.20000000e+01	3.43264639e+04
2.30000000e+01	3.59049620e+04
2.40000000e+01	3.74858932e+04
2.50000000e+01	3.90693611e+04
2.60000000e+01	4.06554691e+04
2.70000000e+01	4.22443204e+04
2.80000000e+01	4.38360179e+04
2.90000000e+01	4.54306647e+04
3.00000000e+01	4.70283634e+04
3.10000000e+01	4.86292164e+04
3.20000000e+01	5.02333263e+04
3.30000000e+01	5.18407952e+04
3.40000000e+01	5.34517251e+04
3.50000000e+01	5.50662184e+04
3.60000000e+01	5.66843763e+04
3.70000000e+01	5.83063010e+04
3.80000000e+01	5.99320940e+04
3.90000000e+01	6.15618567e+04
4.00000000e+01	6.31956910e+04
4.10000000e+01	6.48336979e+04
4.20000000e+01	6.64759792e+04
4.30000000e+01	6.81226362e+04
4.40000000e+01	6.97737705e+04
4.50000000e+01	7.14294834e+04
4.60000000e+01	7.30898767e+04
4.70000000e+01	7.47550521e+04
4.80000000e+01	7.64251114e+04
4.90000000e+01	7.81001566e+04
5.00000000e+01	7.97802901e+04
5.10000000e+01	8.14656140e+04
5.20000000e+01	8.31562314e+04
5.30000000e+01	8.48522453e+04
5.40000000e+01	8.65537590e+04
5.50000000e+01	8.82608763e+04
5.60000000e+01	8.99737013e+04
5.70000000e+01	9.16923390e+04
5.80000000e+01	9.34168945e+04
5.90000000e+01	9.51474735e+04
6.00000000e+01	9.68841824e+04
6.10000000e+01	9.86271286e+04
6.20000000e+01	1.00376420e+05
6.30000000e+01	1.02132164e+05
6.40000000e+01	1.03894471e+05
6.50000000e+01	1.05663452e+05
6.60000000e+01	1.07439217e+05
6.70000000e+01	1.09221878e+05
6.80000000e+01	1.11011550e+05
6.90000000e+01	1.12808346e+05
7.00000000e+01	1.14612382e+05
7.10000000e+01	1.16423774e+05
7.20000000e+01	1.18242642e+05
7.30000000e+01	1.20069104e+05
7.40000000e+01	1.21903282e+05
7.50000000e+01	1.23745298e+05
7.60000000e+01	1.25595277e+05
7.70000000e+01	1.27453343e+05
7.80000000e+01	1.29319625e+05
7.90000000e+01	1.31194251e+05
8.00000000e+01	1.33077354e+05
8.10000000e+01	1.34969065e+05
8.20000000e+01	1.36869521e+05
8.30000000e+01	1.38778858e+05
8.40000000e+01	1.40697217e+05
8.50000000e+01	1.42624738e+05
8.60000000e+01	1.44561566e+05
8.70000000e+01	1.46507847e+05
8.80000000e+01	1.48463731e+05
8.90000000e+01	1.50429368e+05
9.00000000e+01	1.52404914e+05
9.10000000e+01	1.54390525e+05
9.20000000e+01	1.56386361e+05
9.30000000e+01	1.58392584e+05
9.40000000e+01	1.60409361e+05
9.50000000e+01	1.62436860e+05
9.60000000e+01	1.64475254e+05
9.70000000e+01	1.66524717e+05
9.80000000e+01	1.68585429e+05
9.90000000e+01	1.70657570e+05
1.00000000e+02	1.72741328e+05
1.01000000e+02	1.74836890e+05
1.02000000e+02	1.76944449e+05
1.03000000e+02	1.79064204e+05
1.04000000e+02	1.81196352e+05
1.05000000e+02	1.83341099e+05
1.06000000e+02	1.85498654e+05
1.07000000e+02	1.87669229e+05
1.08000000e+02	1.89853040e+05
1.09000000e+02	1.92050308e+05
1.10000000e+02	1.94261258e+05
1.11000000e+02	1.96486121e+05
1.12000000e+02	1.98725130e+05
1.13000000e+02	2.00978525e+05
1.14000000e+02	2.03246548e+05
1.15000000e+02	2.05529449e+05
1.16000000e+02	2.07827479e+05
1.17000000e+02	2.10140898e+05
1.18000000e+02	2.12469968e+05
1.19000000e+02	2.14814957e+05
1.20000000e+02	2.17176138e+05
1.21000000e+02	2.19553791e+05
1.22000000e+02	2.21948198e+05
1.23000000e+02	2.24359650e+05
1.24000000e+02	2.26788440e+05
1.25000000e+02	2.29234869e+05
1.26000000e+02	2.31699243e+05
1.27000000e+02	2.34181873e+05
1.28000000e+02	2.36683076e+05
1.29000000e+02	2.39203176e+05
1.30000000e+02	2.41742502e+05
1.31000000e+02	2.44301388e+05
1.32000000e+02	2.46880175e+05
1.33000000e+02	2.49479211e+05
1.34000000e+02	2.52098849e+05
1.35000000e+02	2.54739448e+05
1.36000000e+02	2.57401374e+05
1.37000000e+02	2.60084999e+05
1.38000000e+02	2.62790702e+05
1.39000000e+02	2.65518868e+05
1.40000000e+02	2.68269888e+05
1.41000000e+02	2.71044161e+05
1.42000000e+02	2.73842092e+05
1.43000000e+02	2.76664091e+05
1.44000000e+02	2.79510579e+05
1.45000000e+02	2.82381979e+05
1.46000000e+02	2.85278725e+05
1.47000000e+02	2.88201255e+05
1.48000000e+02	2.91150016e+05
1.49000000e+02	2.94125461e+05
1.50000000e+02	2.97128051e+05
1.51000000e+02	3.00158252e+05
1.52000000e+02	3.03216541e+05
1.53000000e+02	3.06303400e+05
1.54000000e+02	3.09419318e+05
1.55000000e+02	3.12564792e+05
1.56000000e+02	3.15740327e+05
1.57000000e+02	3.18946435e+05
1.58000000e+02	3.22183636e+05
1.59000000e+02	3.25452458e+05
1.60000000e+02	3.28753435e+05
1.61000000e+02	3.32087111e+05
1.62000000e+02	3.35454037e+05
1.63000000e+02	3.38854771e+05
1.64000000e+02	3.42289880e+05
1.65000000e+02	3.45759940e+05
1.66000000e+02	3.49265532e+05
1.67000000e+02	3.52807250e+05
1.68000000e+02	3.56385690e+05
1.69000000e+02	3.60001463e+05
1.70000000e+02	3.63655184e+05
1.71000000e+02	3.67347476e+05
1.72000000e+02	3.71078975e+05
1.73000000e+02	3.74850322e+05
1.74000000e+02	3.78662167e+05
1.75000000e+02	3.82515170e+05
1.76000000e+02	3.86409999e+05
1.77000000e+02	3.90347331e+05
1.78000000e+02	3.94327854e+05
1.79000000e+02	3.98352261e+05
1.80000000e+02	4.02421259e+05
1.81000000e+02	4.06535562e+05
1.82000000e+02	4.10695892e+05
1.83000000e+02	4.14902984e+05
1.84000000e+02	4.19157580e+05
1.85000000e+02	4.23460433e+05
1.86000000e+02	4.27812305e+05
1.87000000e+02	4.32213969e+05
1.88000000e+02	4.36666208e+05
1.89000000e+02	4.41169814e+05
1.90000000e+02	4.45725592e+05
1.91000000e+02	4.50334354e+05
1.92000000e+02	4.54996926e+05
1.93000000e+02	4.59714143e+05
1.94000000e+02	4.64486851e+05
1.95000000e+02	4.69315907e+05
1.96000000e+02	4.74202181e+05
1.97000000e+02	4.79146552e+05
1.98000000e+02	4.84149911e+05
1.99000000e+02	4.89213162e+05
2.00000000e+02	4.94337219e+05
2.01000000e+02	4.99523011e+05
2.02000000e+02	5.04771475e+05
2.03000000e+02	5.10083564e+05
2.04000000e+02	5.15460242e+05
2.05000000e+02	5.20902485e+05
2.06000000e+02	5.26411284e+05
2.07000000e+02	5.31987642e+05
2.08000000e+02	5.37632574e+05
2.09000000e+02	5.43347110e+05
2.10000000e+02	5.49132294e+05
2.11000000e+02	5.54989183e+05
2.12000000e+02	5.60918848e+05
2.13000000e+02	5.66922375e+05
2.14000000e+02	5.73000864e+05
2.15000000e+02	5.79155431e+05
2.16000000e+02	5.85387204e+05
2.17000000e+02	5.91697330e+05
2.18000000e+02	5.98086968e+05
2.19000000e+02	6.04557295e+05
2.20000000e+02	6.11109504e+05
2.21000000e+02	6.17744802e+05
2.22000000e+02	6.24464413e+05
2.23000000e+02	6.31269580e+05
2.24000000e+02	6.38161560e+05
2.25000000e+02	6.45141629e+05
2.26000000e+02	6.52211079e+05
2.27000000e+02	6.59371220e+05
2.28000000e+02	6.66623381e+05
2.29000000e+02	6.73968907e+05
2.30000000e+02	6.81409165e+05
2.31000000e+02	6.88945536e+05
2.32000000e+02	6.96579424e+05
2.33000000e+02	7.04312249e+05
2.34000000e+02	7.12145455e+05
2.35000000e+02	7.20080500e+05
2.36000000e+02	7.28118867e+05
2.37000000e+02	7.36262056e+05
2.38000000e+02	7.44511591e+05
2.39000000e+02	7.52869013e+05
2.40000000e+02	7.61335887e+05
2.41000000e+02	7.69913799e+05
2.42000000e+02	7.78604357e+05
2.43000000e+02	7.87409189e+05
2.44000000e+02	7.96329948e+05
2.45000000e+02	8.05368309e+05
2.46000000e+02	8.14525969e+05
2.47000000e+02	8.23804650e+05
2.48000000e+02	8.33206096e+05
2.49000000e+02	8.42732074e+05
2.50000000e+02	8.52384379e+05
2.51000000e+02	8.62164827e+05
2.52000000e+02	8.72075259e+05
2.53000000e+02	8.82117542e+05
2.54000000e+02	8.92293569e+05
2.55000000e+02	9.02605258e+05
2.56000000e+02	9.13054552e+05
2.57000000e+02	9.23643421e+05
2.58000000e+02	9.34373862e+05
2.59000000e+02	9.45247898e+05
2.60000000e+02	9.56267580e+05
2.61000000e+02	9.67434985e+05
2.62000000e+02	9.78752220e+05
2.63000000e+02	9.90221417e+05
2.64000000e+02	1.00184474e+06
2.65000000e+02	1.01362437e+06
2.66000000e+02	1.02556254e+06
2.67000000e+02	1.03766150e+06
2.68000000e+02	1.04992351e+06
2.69000000e+02	1.06235089e+06
2.70000000e+02	1.07494597e+06
2.71000000e+02	1.08771112e+06
2.72000000e+02	1.10064874e+06
2.73000000e+02	1.11376126e+06
2.74000000e+02	1.12705113e+06
2.75000000e+02	1.14052085e+06
2.76000000e+02	1.15417294e+06
2.77000000e+02	1.16800994e+06
2.78000000e+02	1.18203445e+06
2.79000000e+02	1.19624908e+06
2.80000000e+02	1.21065649e+06
2.81000000e+02	1.22525934e+06
2.82000000e+02	1.24006036e+06
2.83000000e+02	1.25506230e+06
2.84000000e+02	1.27026792e+06
2.85000000e+02	1.28568006e+06
2.86000000e+02	1.30130154e+06
2.87000000e+02	1.31713526e+06
2.88000000e+02	1.33318411e+06
2.89000000e+02	1.34945106e+06
2.90000000e+02	1.36593908e+06
2.91000000e+02	1.38265119e+06
2.92000000e+02	1.39959043e+06
2.93000000e+02	1.41675989e+06
2.94000000e+02	1.43416268e+06
2.95000000e+02	1.45180195e+06
2.96000000e+02	1.46968090e+06
2.97000000e+02	1.48780273e+06
2.98000000e+02	1.50617070e+06
2.99000000e+02	1.52478810e+06
3.00000000e+02	1.54365826e+06
3.01000000e+02	1.56278452e+06
3.02000000e+02	1.58217028e+06
3.03000000e+02	1.60181896e+06
3.04000000e+02	1.62173402e+06
3.05000000e+02	1.64191896e+06
3.06000000e+02	1.66237729e+06
3.07000000e+02	1.68311258e+06
3.08000000e+02	1.70412843e+06
3.09000000e+02	1.72542845e+06
3.10000000e+02	1.74701631e+06
3.11000000e+02	1.76889570e+06
3.12000000e+02	1.79107035e+06
3.13000000e+02	1.81354401e+06
3.14000000e+02	1.83632047e+06
3.15000000e+02	1.85940355e+06
3.16000000e+02	1.88279711e+06
3.17000000e+02	1.90650503e+06
3.18000000e+02	1.93053122e+06
3.19000000e+02	1.95487963e+06
3.20000000e+02	1.97955424e+06
3.21000000e+02	2.00455903e+06
3.22000000e+02	2.02989806e+06
3.23000000e+02	2.05557537e+06
3.24000000e+02	2.08159506e+06
3.25000000e+02	2.10796124e+06
3.26000000e+02	2.13467806e+06
3.27000000e+02	2.16174967e+06
3.28000000e+02	2.18918029e+06
3.29000000e+02	2.21697411e+06
3.30000000e+02	2.24513539e+06
3.31000000e+02	2.27366839e+06
3.32000000e+02	2.30257739e+06
3.33000000e+02	2.33186671e+06
3.34000000e+02	2.36154066e+06
3.35000000e+02	2.39160361e+06
3.36000000e+02	2.42205992e+06
3.37000000e+02	2.45291396e+06
3.38000000e+02	2.48417015e+06
3.39000000e+02	2.51583290e+06
3.40000000e+02	2.54790664e+06
3.41000000e+02	2.58039582e+06
3.42000000e+02	2.61330489e+06
3.43000000e+02	2.64663832e+06
3.44000000e+02	2.68040059e+06
3.45000000e+02	2.71459619e+06
3.46000000e+02	2.74922962e+06
3.47000000e+02	2.78430536e+06
3.48000000e+02	2.81982793e+06
3.49000000e+02	2.85580184e+06
3.50000000e+02	2.89223160e+06
3.51000000e+02	2.92912171e+06
3.52000000e+02	2.96647669e+06
3.53000000e+02	3.00430104e+06
3.54000000e+02	3.04259927e+06
3.55000000e+02	3.08137586e+06
3.56000000e+02	3.12063532e+06
3.57000000e+02	3.16038212e+06
3.58000000e+02	3.20062072e+06
3.59000000e+02	3.24135559e+06
3.60000000e+02	3.28259116e+06
3.61000000e+02	3.32433186e+06
3.62000000e+02	3.36658209e+06
3.63000000e+02	3.40934624e+06
3.64000000e+02	3.45262867e+06
3.65000000e+02	3.49643372e+06
3.66000000e+02	3.54076570e+06
3.67000000e+02	3.58562890e+06
3.68000000e+02	3.63102757e+06
3.69000000e+02	3.67696592e+06
3.70000000e+02	3.72344815e+06
3.71000000e+02	3.77047840e+06
3.72000000e+02	3.81806079e+06
3.73000000e+02	3.86619937e+06
3.74000000e+02	3.91489817e+06
3.75000000e+02	3.96416117e+06
3.76000000e+02	4.01399230e+06
3.77000000e+02	4.06439544e+06
3.78000000e+02	4.11537440e+06
3.79000000e+02	4.16693296e+06
3.80000000e+02	4.21907482e+06
3.81000000e+02	4.27180363e+06
3.82000000e+02	4.32512298e+06
3.83000000e+02	4.37903638e+06
3.84000000e+02	4.43354727e+06
3.85000000e+02	4.48865904e+06
3.86000000e+02	4.54437499e+06
3.87000000e+02	4.60069833e+06
3.88000000e+02	4.65763222e+06
3.89000000e+02	4.71517970e+06
3.90000000e+02	4.77334376e+06
3.91000000e+02	4.83212726e+06
3.92000000e+02	4.89153301e+06
3.93000000e+02	4.95156370e+06
3.94000000e+02	5.01222192e+06
3.95000000e+02	5.07351016e+06
3.96000000e+02	5.13543080e+06
3.97000000e+02	5.19798613e+06
3.98000000e+02	5.26117830e+06
3.99000000e+02	5.32500935e+06
4.00000000e+02	5.38948121e+06
4.01000000e+02	5.45459567e+06
4.02000000e+02	5.52035441e+06
4.03000000e+02	5.58675894e+06
4.04000000e+02	5.65381068e+06
4.05000000e+02	5.72151086e+06
4.06000000e+02	5.78986058e+06
4.07000000e+02	5.85886080e+06
4.08000000e+02	5.92851230e+06
4.09000000e+02	5.99881571e+06
4.10000000e+02	6.06977146e+06
4.11000000e+02	6.14137984e+06
4.12000000e+02	6.21364094e+06
4.13000000e+02	6.28655465e+06
4.14000000e+02	6.36012066e+06
4.15000000e+02	6.43433846e+06
4.16000000e+02	6.50920734e+06
4.17000000e+02	6.58472633e+06
4.18000000e+02	6.66089425e+06
4.19000000e+02	6.73770967e+06
4.20000000e+02	6.81517090e+06
4.21000000e+02	6.89327598e+06
4.22000000e+02	6.97202268e+06
4.23000000e+02	7.05140848e+06
4.24000000e+02	7.13143053e+06
4.25000000e+02	7.21208567e+06
4.26000000e+02	7.29337043e+06
4.27000000e+02	7.37528093e+06
4.28000000e+02	7.45781296e+06
4.29000000e+02	7.54096190e+06
4.30000000e+02	7.62472272e+06
4.31000000e+02	7.70908994e+06
4.32000000e+02	7.79405765e+06
4.33000000e+02	7.87961941e+06
4.34000000e+02	7.96576831e+06
4.35000000e+02	8.05249688e+06
4.36000000e+02	8.13979706e+06
4.37000000e+02	8.22766021e+06
4.38000000e+02	8.31607704e+06
4.39000000e+02	8.40503757e+06
4.40000000e+02	8.49453112e+06
4.41000000e+02	8.58454623e+06
4.42000000e+02	8.67507064e+06
4.43000000e+02	8.76609124e+06
4.44000000e+02	8.85759399e+06
4.45000000e+02	8.94956391e+06
4.46000000e+02	9.04198499e+06
4.47000000e+02	9.13484013e+06
4.48000000e+02	9.22811110e+06
4.49000000e+02	9.32177843e+06
4.50000000e+02	9.41582138e+06
4.51000000e+02	9.51021781e+06
4.52000000e+02	9.60494416e+06
4.53000000e+02	9.69997530e+06
4.54000000e+02	9.79528448e+06
4.55000000e+02	9.89084322e+06
4.56000000e+02	9.98662121e+06
4.57000000e+02	1.00825862e+07
4.58000000e+02	1.01787038e+07
4.59000000e+02	1.02749377e+07
4.60000000e+02	1.03712489e+07
4.61000000e+02	1.04675963e+07
4.62000000e+02	1.05639360e+07
4.63000000e+02	1.06602216e+07
4.64000000e+02	1.07564038e+07
4.65000000e+02	1.08524300e+07
4.66000000e+02	1.09482448e+07
4.67000000e+02	1.10437892e+07
4.68000000e+02	1.11390008e+07
4.69000000e+02	1.12338135e+07
4.70000000e+02	1.13281573e+07
4.71000000e+02	1.14219580e+07
4.72000000e+02	1.15151374e+07
4.73000000e+02	1.16076126e+07
4.74000000e+02	1.16992962e+07
4.75000000e+02	1.17900961e+07
4.76000000e+02	1.18799148e+07
4.77000000e+02	1.19686498e+07
4.78000000e+02	1.20561932e+07
4.79000000e+02	1.21424314e+07
4.80000000e+02	1.22272452e+07
4.81000000e+02	1.23105093e+07
4.82000000e+02	1.23920923e+07
4.83000000e+02	1.24718567e+07
4.84000000e+02	1.25496586e+07
4.85000000e+02	1.26253478e+07
4.86000000e+02	1.26987675e+07
4.87000000e+02	1.27697545e+07
4.88000000e+02	1.28381390e+07
4.89000000e+02	1.29037449e+07
4.90000000e+02	1.29663898e+07
4.91000000e+02	1.30258853e+07
4.92000000e+02	1.30820368e+07
4.93000000e+02	1.31346443e+07
4.94000000e+02	1.31835027e+07
4.95000000e+02	1.32284021e+07
4.96000000e+02	1.32691284e+07
4.97000000e+02	1.33054640e+07
4.98000000e+02	1.33371886e+07
4.99000000e+02	1.33640801e+07
5.00000000e+02	1.33859155e+07
5.01000000e+02	1.34024721e+07
5.02000000e+02	1.34135287e+07
5.03000000e+02	1.34188669e+07
5.04000000e+02	1.34182728e+07
5.05000000e+02	1.34115384e+07
5.06000000e+02	1.33984633e+07
5.07000000e+02	1.33788569e+07
5.08000000e+02	1.33525396e+07
5.09000000e+02	1.33193456e+07
5.10000000e+02	1.32791244e+07
5.11000000e+02	1.32317430e+07
5.12000000e+02	1.31770881e+07
5.13000000e+02	1.31150680e+07
5.14000000e+02	1.30456149e+07
5.15000000e+02	1.29686863e+07
5.16000000e+02	1.28842672e+07
5.17000000e+02	1.27923718e+07
5.18000000e+02	1.26930442e+07
5.19000000e+02	1.25863604e+07
5.20000000e+02	1.24724285e+07
5.21000000e+02	1.23513897e+07
5.22000000e+02	1.22234180e+07
5.23000000e+02	1.20887204e+07
5.24000000e+02	1.19475362e+07
5.25000000e+02	1.18001358e+07
5.26000000e+02	1.16468196e+07
5.27000000e+02	1.14879160e+07
5.28000000e+02	1.13237792e+07
5.29000000e+02	1.11547869e+07
5.30000000e+02	1.09813373e+07
5.31000000e+02	1.08038459e+07
5.32000000e+02	1.06227424e+07
5.33000000e+02	1.04384672e+07
5.34000000e+02	1.02514677e+07
5.35000000e+02	1.00621946e+07
5.36000000e+02	9.87109857e+06
5.37000000e+02	9.67862660e+06
5.38000000e+02	9.48521862e+06
5.39000000e+02	9.29130435e+06
5.40000000e+02	9.09730040e+06
5.41000000e+02	8.90360756e+06
5.42000000e+02	8.71060852e+06
5.43000000e+02	8.51866581e+06
5.44000000e+02	8.32812017e+06
5.45000000e+02	8.13928919e+06
5.46000000e+02	7.95246635e+06
5.47000000e+02	7.76792039e+06
5.48000000e+02	7.58589497e+06
5.49000000e+02	7.40660867e+06
5.50000000e+02	7.23025521e+06
5.51000000e+02	7.05700393e+06
5.52000000e+02	6.88700056e+06
5.53000000e+02	6.72036803e+06
5.54000000e+02	6.55720753e+06
5.55000000e+02	6.39759970e+06
5.56000000e+02	6.24160584e+06
5.57000000e+02	6.08926923e+06
5.58000000e+02	5.94061649e+06
5.59000000e+02	5.79565895e+06
5.60000000e+02	5.65439399e+06
5.61000000e+02	5.51680640e+06
5.62000000e+02	5.38286970e+06
5.63000000e+02	5.25254734e+06
5.64000000e+02	5.12579400e+06
5.65000000e+02	5.00255664e+06
5.66000000e+02	4.88277562e+06
5.67000000e+02	4.76638566e+06
5.68000000e+02	4.65331683e+06
5.69000000e+02	4.54349530e+06
5.70000000e+02	4.43684423e+06
5.71000000e+02	4.33328438e+06
5.72000000e+02	4.23273479e+06
5.73000000e+02	4.13511335e+06
5.74000000e+02	4.04033730e+06
5.75000000e+02	3.94832364e+06
5.76000000e+02	3.85898961e+06
5.77000000e+02	3.77225294e+06
5.78000000e+02	3.68803220e+06
5.79000000e+02	3.60624702e+06
5.80000000e+02	3.52681832e+06
5.81000000e+02	3.44966850e+06
5.82000000e+02	3.37472155e+06
5.83000000e+02	3.30190319e+06
5.84000000e+02	3.23114096e+06
5.85000000e+02	3.16236428e+06
5.86000000e+02	3.09550452e+06
5.87000000e+02	3.03049500e+06
5.88000000e+02	2.96727104e+06
5.89000000e+02	2.90576995e+06
5.90000000e+02	2.84593102e+06
5.91000000e+02	2.78769550e+06
5.92000000e+02	2.73100660e+06
5.93000000e+02	2.67580942e+06
5.94000000e+02	2.62205097e+06
5.95000000e+02	2.56968006e+06
5.96000000e+02	2.51864731e+06
5.97000000e+02	2.46890509e+06
5.98000000e+02	2.42040745e+06
5.99000000e+02	2.37311011e+06
6.00000000e+02	2.32697036e+06
6.01000000e+02	2.28194704e+06
6.02000000e+02	2.23800049e+06
6.03000000e+02	2.19509248e+06
6.04000000e+02	2.15318618e+06
6.05000000e+02	2.11224608e+06
6.06000000e+02	2.07223799e+06
6.07000000e+02	2.03312892e+06
6.08000000e+02	1.99488712e+06
6.09000000e+02	1.95748194e+06
6.10000000e+02	1.92088389e+06
6.11000000e+02	1.88506448e+06
6.12000000e+02	1.84999629e+06
6.13000000e+02	1.81565286e+06
6.14000000e+02	1.78200866e+06
6.15000000e+02	1.74903909e+06
6.16000000e+02	1.71672039e+06
6.17000000e+02	1.68502966e+06
6.18000000e+02	1.65394477e+06
6.19000000e+02	1.62344438e+06
6.20000000e+02	1.59350789e+06
6.21000000e+02	1.56411541e+06
6.22000000e+02	1.53524771e+06
6.23000000e+02	1.50688624e+06
6.24000000e+02	1.47901307e+06
6.25000000e+02	1.45161088e+06
6.26000000e+02	1.42466292e+06
6.27000000e+02	1.39815301e+06
6.28000000e+02	1.37206550e+06
6.29000000e+02	1.34638527e+06
6.30000000e+02	1.32109770e+06
6.31000000e+02	1.29618863e+06
6.32000000e+02	1.27164439e+06
6.33000000e+02	1.24745173e+06
6.34000000e+02	1.22359784e+06
6.35000000e+02	1.20007034e+06
6.36000000e+02	1.17685722e+06
6.37000000e+02	1.15394688e+06
6.38000000e+02	1.13132807e+06
6.39000000e+02	1.10898992e+06
6.40000000e+02	1.08692190e+06
6.41000000e+02	1.06511380e+06
6.42000000e+02	1.04355576e+06
6.43000000e+02	1.02223820e+06
6.44000000e+02	1.00115187e+06
6.45000000e+02	9.80287803e+05
6.46000000e+02	9.59637310e+05
6.47000000e+02	9.39191979e+05
6.48000000e+02	9.18943666e+05
6.49000000e+02	8.98884476e+05
6.50000000e+02	8.79006768e+05
6.51000000e+02	8.59303139e+05
6.52000000e+02	8.39766417e+05
6.53000000e+02	8.20389657e+05
6.54000000e+02	8.01166127e+05
6.55000000e+02	7.82089316e+05
6.56000000e+02	7.63152929e+05
6.57000000e+02	7.44350831e+05
6.58000000e+02	7.25677036e+05
6.59000000e+02	7.07125879e+05
