# Profil de ElecX au temps 1.500000000000013e-11 
# simu : /Volumes/MERCURE/JOBS/Zeq1_tanh_50mic_5e20_B0_20ps/GNU/ElecX@y-c.set
# col 0 : abscisse (um)
# col 1 : ElecX (V/m)
0.00000000e+00	0.00000000e+00
1.00000000e+00	3.62279328e+03
2.00000000e+00	3.43633859e+03
3.00000000e+00	4.85997074e+03
4.00000000e+00	7.64443790e+03
5.00000000e+00	9.44826892e+03
6.00000000e+00	1.13185138e+04
7.00000000e+00	1.32024814e+04
8.00000000e+00	1.50882449e+04
9.00000000e+00	1.69744377e+04
1.00000000e+01	1.88608920e+04
1.10000000e+01	2.07476037e+04
1.20000000e+01	2.26345982e+04
1.30000000e+01	2.45219010e+04
1.40000000e+01	2.64095273e+04
1.50000000e+01	2.82975364e+04
1.60000000e+01	3.01859358e+04
1.70000000e+01	3.20747620e+04
1.80000000e+01	3.39640474e+04
1.90000000e+01	3.58538250e+04
2.00000000e+01	3.77441299e+04
2.10000000e+01	3.96350085e+04
2.20000000e+01	4.15264557e+04
2.30000000e+01	4.34185666e+04
2.40000000e+01	4.53113543e+04
2.50000000e+01	4.72048598e+04
2.60000000e+01	4.90991295e+04
2.70000000e+01	5.09942254e+04
2.80000000e+01	5.28901225e+04
2.90000000e+01	5.47869768e+04
3.00000000e+01	5.66847698e+04
3.10000000e+01	5.85835757e+04
3.20000000e+01	6.04834357e+04
3.30000000e+01	6.23843881e+04
3.40000000e+01	6.42865540e+04
3.50000000e+01	6.61899506e+04
3.60000000e+01	6.80946333e+04
3.70000000e+01	7.00006555e+04
3.80000000e+01	7.19081490e+04
3.90000000e+01	7.38171494e+04
4.00000000e+01	7.57276489e+04
4.10000000e+01	7.76398559e+04
4.20000000e+01	7.95537950e+04
4.30000000e+01	8.14694675e+04
4.40000000e+01	8.33870671e+04
4.50000000e+01	8.53066652e+04
4.60000000e+01	8.72282191e+04
4.70000000e+01	8.91520058e+04
4.80000000e+01	9.10780063e+04
4.90000000e+01	9.30062802e+04
5.00000000e+01	9.49370869e+04
5.10000000e+01	9.68703027e+04
5.20000000e+01	9.88062529e+04
5.30000000e+01	1.00744878e+05
5.40000000e+01	1.02686378e+05
5.50000000e+01	1.04630842e+05
5.60000000e+01	1.06578361e+05
5.70000000e+01	1.08529107e+05
5.80000000e+01	1.10483141e+05
5.90000000e+01	1.12440636e+05
6.00000000e+01	1.14401705e+05
6.10000000e+01	1.16366442e+05
6.20000000e+01	1.18335093e+05
6.30000000e+01	1.20307606e+05
6.40000000e+01	1.22284347e+05
6.50000000e+01	1.24265278e+05
6.60000000e+01	1.26250630e+05
6.70000000e+01	1.28240589e+05
6.80000000e+01	1.30235193e+05
6.90000000e+01	1.32234700e+05
7.00000000e+01	1.34239266e+05
7.10000000e+01	1.36249010e+05
7.20000000e+01	1.38264102e+05
7.30000000e+01	1.40284765e+05
7.40000000e+01	1.42311139e+05
7.50000000e+01	1.44343419e+05
7.60000000e+01	1.46381736e+05
7.70000000e+01	1.48426348e+05
7.80000000e+01	1.50477415e+05
7.90000000e+01	1.52535125e+05
8.00000000e+01	1.54599679e+05
8.10000000e+01	1.56671279e+05
8.20000000e+01	1.58750125e+05
8.30000000e+01	1.60836432e+05
8.40000000e+01	1.62930409e+05
8.50000000e+01	1.65032270e+05
8.60000000e+01	1.67142234e+05
8.70000000e+01	1.69260525e+05
8.80000000e+01	1.71387369e+05
8.90000000e+01	1.73522996e+05
9.00000000e+01	1.75667640e+05
9.10000000e+01	1.77821538e+05
9.20000000e+01	1.79984941e+05
9.30000000e+01	1.82158050e+05
9.40000000e+01	1.84341185e+05
9.50000000e+01	1.86534553e+05
9.60000000e+01	1.88738425e+05
9.70000000e+01	1.90953010e+05
9.80000000e+01	1.93178671e+05
9.90000000e+01	1.95415616e+05
1.00000000e+02	1.97664064e+05
1.01000000e+02	1.99924418e+05
1.02000000e+02	2.02196840e+05
1.03000000e+02	2.04481677e+05
1.04000000e+02	2.06779186e+05
1.05000000e+02	2.09089681e+05
1.06000000e+02	2.11413416e+05
1.07000000e+02	2.13750761e+05
1.08000000e+02	2.16101909e+05
1.09000000e+02	2.18467285e+05
1.10000000e+02	2.20847119e+05
1.11000000e+02	2.23241724e+05
1.12000000e+02	2.25651474e+05
1.13000000e+02	2.28076642e+05
1.14000000e+02	2.30517557e+05
1.15000000e+02	2.32974550e+05
1.16000000e+02	2.35447974e+05
1.17000000e+02	2.37938141e+05
1.18000000e+02	2.40445400e+05
1.19000000e+02	2.42970103e+05
1.20000000e+02	2.45512557e+05
1.21000000e+02	2.48073178e+05
1.22000000e+02	2.50652288e+05
1.23000000e+02	2.53250235e+05
1.24000000e+02	2.55867390e+05
1.25000000e+02	2.58504166e+05
1.26000000e+02	2.61160855e+05
1.27000000e+02	2.63837883e+05
1.28000000e+02	2.66535646e+05
1.29000000e+02	2.69254481e+05
1.30000000e+02	2.71994804e+05
1.31000000e+02	2.74756994e+05
1.32000000e+02	2.77541538e+05
1.33000000e+02	2.80348543e+05
1.34000000e+02	2.83178930e+05
1.35000000e+02	2.86032495e+05
1.36000000e+02	2.88910181e+05
1.37000000e+02	2.91812105e+05
1.38000000e+02	2.94738768e+05
1.39000000e+02	2.97690595e+05
1.40000000e+02	3.00668022e+05
1.41000000e+02	3.03671483e+05
1.42000000e+02	3.06701420e+05
1.43000000e+02	3.09758355e+05
1.44000000e+02	3.12842469e+05
1.45000000e+02	3.15954595e+05
1.46000000e+02	3.19094905e+05
1.47000000e+02	3.22264033e+05
1.48000000e+02	3.25462234e+05
1.49000000e+02	3.28690347e+05
1.50000000e+02	3.31948458e+05
1.51000000e+02	3.35237232e+05
1.52000000e+02	3.38557229e+05
1.53000000e+02	3.41908817e+05
1.54000000e+02	3.45292571e+05
1.55000000e+02	3.48708910e+05
1.56000000e+02	3.52158452e+05
1.57000000e+02	3.55641641e+05
1.58000000e+02	3.59159019e+05
1.59000000e+02	3.62711112e+05
1.60000000e+02	3.66298454e+05
1.61000000e+02	3.69921585e+05
1.62000000e+02	3.73581075e+05
1.63000000e+02	3.77277438e+05
1.64000000e+02	3.81011166e+05
1.65000000e+02	3.84782950e+05
1.66000000e+02	3.88593354e+05
1.67000000e+02	3.92442907e+05
1.68000000e+02	3.96332009e+05
1.69000000e+02	4.00261632e+05
1.70000000e+02	4.04232157e+05
1.71000000e+02	4.08243996e+05
1.72000000e+02	4.12298211e+05
1.73000000e+02	4.16394996e+05
1.74000000e+02	4.20535178e+05
1.75000000e+02	4.24719451e+05
1.76000000e+02	4.28948123e+05
1.77000000e+02	4.33222389e+05
1.78000000e+02	4.37542223e+05
1.79000000e+02	4.41909006e+05
1.80000000e+02	4.46322663e+05
1.81000000e+02	4.50784642e+05
1.82000000e+02	4.55294836e+05
1.83000000e+02	4.59854692e+05
1.84000000e+02	4.64464274e+05
1.85000000e+02	4.69124751e+05
1.86000000e+02	4.73836600e+05
1.87000000e+02	4.78600522e+05
1.88000000e+02	4.83417546e+05
1.89000000e+02	4.88287920e+05
1.90000000e+02	4.93212895e+05
1.91000000e+02	4.98192996e+05
1.92000000e+02	5.03228853e+05
1.93000000e+02	5.08321606e+05
1.94000000e+02	5.13471760e+05
1.95000000e+02	5.18680152e+05
1.96000000e+02	5.23947728e+05
1.97000000e+02	5.29275205e+05
1.98000000e+02	5.34663353e+05
1.99000000e+02	5.40113194e+05
2.00000000e+02	5.45625488e+05
2.01000000e+02	5.51200953e+05
2.02000000e+02	5.56840713e+05
2.03000000e+02	5.62545520e+05
2.04000000e+02	5.68316275e+05
2.05000000e+02	5.74153834e+05
2.06000000e+02	5.80059253e+05
2.07000000e+02	5.86033365e+05
2.08000000e+02	5.92077135e+05
2.09000000e+02	5.98191452e+05
2.10000000e+02	6.04377413e+05
2.11000000e+02	6.10635903e+05
2.12000000e+02	6.16967955e+05
2.13000000e+02	6.23374505e+05
2.14000000e+02	6.29856646e+05
2.15000000e+02	6.36415388e+05
2.16000000e+02	6.43051759e+05
2.17000000e+02	6.49766832e+05
2.18000000e+02	6.56561649e+05
2.19000000e+02	6.63437305e+05
2.20000000e+02	6.70394927e+05
2.21000000e+02	6.77435595e+05
2.22000000e+02	6.84560444e+05
2.23000000e+02	6.91770617e+05
2.24000000e+02	6.99067244e+05
2.25000000e+02	7.06451470e+05
2.26000000e+02	7.13924589e+05
2.27000000e+02	7.21487749e+05
2.28000000e+02	7.29142170e+05
2.29000000e+02	7.36889081e+05
2.30000000e+02	7.44729730e+05
2.31000000e+02	7.52665379e+05
2.32000000e+02	7.60697307e+05
2.33000000e+02	7.68826798e+05
2.34000000e+02	7.77055191e+05
2.35000000e+02	7.85383797e+05
2.36000000e+02	7.93813967e+05
2.37000000e+02	8.02347066e+05
2.38000000e+02	8.10984475e+05
2.39000000e+02	8.19727593e+05
2.40000000e+02	8.28577837e+05
2.41000000e+02	8.37536642e+05
2.42000000e+02	8.46605461e+05
2.43000000e+02	8.55785765e+05
2.44000000e+02	8.65079044e+05
2.45000000e+02	8.74486807e+05
2.46000000e+02	8.84010578e+05
2.47000000e+02	8.93651908e+05
2.48000000e+02	9.03412360e+05
2.49000000e+02	9.13293519e+05
2.50000000e+02	9.23296988e+05
2.51000000e+02	9.33424391e+05
2.52000000e+02	9.43677372e+05
2.53000000e+02	9.54057392e+05
2.54000000e+02	9.64566466e+05
2.55000000e+02	9.75206265e+05
2.56000000e+02	9.85978483e+05
2.57000000e+02	9.96884850e+05
2.58000000e+02	1.00792713e+06
2.59000000e+02	1.01910710e+06
2.60000000e+02	1.03042657e+06
2.61000000e+02	1.04188737e+06
2.62000000e+02	1.05349136e+06
2.63000000e+02	1.06524041e+06
2.64000000e+02	1.07713643e+06
2.65000000e+02	1.08918133e+06
2.66000000e+02	1.10137706e+06
2.67000000e+02	1.11372558e+06
2.68000000e+02	1.12622889e+06
2.69000000e+02	1.13888900e+06
2.70000000e+02	1.15170793e+06
2.71000000e+02	1.16468776e+06
2.72000000e+02	1.17783056e+06
2.73000000e+02	1.19113843e+06
2.74000000e+02	1.20461352e+06
2.75000000e+02	1.21825796e+06
2.76000000e+02	1.23207393e+06
2.77000000e+02	1.24606364e+06
2.78000000e+02	1.26022931e+06
2.79000000e+02	1.27457318e+06
2.80000000e+02	1.28909753e+06
2.81000000e+02	1.30380465e+06
2.82000000e+02	1.31869687e+06
2.83000000e+02	1.33377653e+06
2.84000000e+02	1.34904600e+06
2.85000000e+02	1.36450766e+06
2.86000000e+02	1.38016395e+06
2.87000000e+02	1.39601731e+06
2.88000000e+02	1.41207019e+06
2.89000000e+02	1.42832510e+06
2.90000000e+02	1.44478454e+06
2.91000000e+02	1.46145107e+06
2.92000000e+02	1.47832724e+06
2.93000000e+02	1.49541565e+06
2.94000000e+02	1.51271892e+06
2.95000000e+02	1.53023968e+06
2.96000000e+02	1.54798059e+06
2.97000000e+02	1.56594435e+06
2.98000000e+02	1.58413368e+06
2.99000000e+02	1.60255129e+06
3.00000000e+02	1.62119997e+06
3.01000000e+02	1.64008250e+06
3.02000000e+02	1.65920168e+06
3.03000000e+02	1.67856035e+06
3.04000000e+02	1.69816136e+06
3.05000000e+02	1.71800761e+06
3.06000000e+02	1.73810200e+06
3.07000000e+02	1.75844744e+06
3.08000000e+02	1.77904691e+06
3.09000000e+02	1.79990336e+06
3.10000000e+02	1.82101980e+06
3.11000000e+02	1.84239925e+06
3.12000000e+02	1.86404475e+06
3.13000000e+02	1.88595936e+06
3.14000000e+02	1.90814618e+06
3.15000000e+02	1.93060830e+06
3.16000000e+02	1.95334887e+06
3.17000000e+02	1.97637102e+06
3.18000000e+02	1.99967793e+06
3.19000000e+02	2.02327278e+06
3.20000000e+02	2.04715880e+06
3.21000000e+02	2.07133921e+06
3.22000000e+02	2.09581725e+06
3.23000000e+02	2.12059620e+06
3.24000000e+02	2.14567934e+06
3.25000000e+02	2.17106998e+06
3.26000000e+02	2.19677143e+06
3.27000000e+02	2.22278704e+06
3.28000000e+02	2.24912015e+06
3.29000000e+02	2.27577414e+06
3.30000000e+02	2.30275240e+06
3.31000000e+02	2.33005832e+06
3.32000000e+02	2.35769532e+06
3.33000000e+02	2.38566682e+06
3.34000000e+02	2.41397626e+06
3.35000000e+02	2.44262711e+06
3.36000000e+02	2.47162281e+06
3.37000000e+02	2.50096686e+06
3.38000000e+02	2.53066273e+06
3.39000000e+02	2.56071392e+06
3.40000000e+02	2.59112393e+06
3.41000000e+02	2.62189628e+06
3.42000000e+02	2.65303448e+06
3.43000000e+02	2.68454207e+06
3.44000000e+02	2.71642257e+06
3.45000000e+02	2.74867952e+06
3.46000000e+02	2.78131647e+06
3.47000000e+02	2.81433695e+06
3.48000000e+02	2.84774452e+06
3.49000000e+02	2.88154272e+06
3.50000000e+02	2.91573510e+06
3.51000000e+02	2.95032521e+06
3.52000000e+02	2.98531660e+06
3.53000000e+02	3.02071282e+06
3.54000000e+02	3.05651740e+06
3.55000000e+02	3.09273388e+06
3.56000000e+02	3.12936580e+06
3.57000000e+02	3.16641668e+06
3.58000000e+02	3.20389005e+06
3.59000000e+02	3.24178941e+06
3.60000000e+02	3.28011826e+06
3.61000000e+02	3.31888009e+06
3.62000000e+02	3.35807839e+06
3.63000000e+02	3.39771662e+06
3.64000000e+02	3.43779823e+06
3.65000000e+02	3.47832666e+06
3.66000000e+02	3.51930533e+06
3.67000000e+02	3.56073764e+06
3.68000000e+02	3.60262698e+06
3.69000000e+02	3.64497672e+06
3.70000000e+02	3.68779018e+06
3.71000000e+02	3.73107071e+06
3.72000000e+02	3.77482159e+06
3.73000000e+02	3.81904609e+06
3.74000000e+02	3.86374747e+06
3.75000000e+02	3.90892894e+06
3.76000000e+02	3.95459368e+06
3.77000000e+02	4.00074487e+06
3.78000000e+02	4.04738561e+06
3.79000000e+02	4.09451902e+06
3.80000000e+02	4.14214815e+06
3.81000000e+02	4.19027601e+06
3.82000000e+02	4.23890560e+06
3.83000000e+02	4.28803987e+06
3.84000000e+02	4.33768171e+06
3.85000000e+02	4.38783400e+06
3.86000000e+02	4.43849955e+06
3.87000000e+02	4.48968113e+06
3.88000000e+02	4.54138148e+06
3.89000000e+02	4.59360327e+06
3.90000000e+02	4.64634913e+06
3.91000000e+02	4.69962164e+06
3.92000000e+02	4.75342331e+06
3.93000000e+02	4.80775663e+06
3.94000000e+02	4.86262398e+06
3.95000000e+02	4.91802772e+06
3.96000000e+02	4.97397014e+06
3.97000000e+02	5.03045346e+06
3.98000000e+02	5.08747982e+06
3.99000000e+02	5.14505132e+06
4.00000000e+02	5.20316998e+06
4.01000000e+02	5.26183772e+06
4.02000000e+02	5.32105641e+06
4.03000000e+02	5.38082785e+06
4.04000000e+02	5.44115372e+06
4.05000000e+02	5.50203564e+06
4.06000000e+02	5.56347515e+06
4.07000000e+02	5.62547367e+06
4.08000000e+02	5.68803254e+06
4.09000000e+02	5.75115301e+06
4.10000000e+02	5.81483620e+06
4.11000000e+02	5.87908313e+06
4.12000000e+02	5.94389473e+06
4.13000000e+02	6.00927179e+06
4.14000000e+02	6.07521497e+06
4.15000000e+02	6.14172483e+06
4.16000000e+02	6.20880176e+06
4.17000000e+02	6.27644603e+06
4.18000000e+02	6.34465776e+06
4.19000000e+02	6.41343692e+06
4.20000000e+02	6.48278329e+06
4.21000000e+02	6.55269653e+06
4.22000000e+02	6.62317606e+06
4.23000000e+02	6.69422115e+06
4.24000000e+02	6.76583087e+06
4.25000000e+02	6.83800406e+06
4.26000000e+02	6.91073935e+06
4.27000000e+02	6.98403514e+06
4.28000000e+02	7.05788958e+06
4.29000000e+02	7.13230055e+06
4.30000000e+02	7.20726566e+06
4.31000000e+02	7.28278224e+06
4.32000000e+02	7.35884730e+06
4.33000000e+02	7.43545751e+06
4.34000000e+02	7.51260923e+06
4.35000000e+02	7.59029841e+06
4.36000000e+02	7.66852064e+06
4.37000000e+02	7.74727109e+06
4.38000000e+02	7.82654448e+06
4.39000000e+02	7.90633508e+06
4.40000000e+02	7.98663666e+06
4.41000000e+02	8.06744245e+06
4.42000000e+02	8.14874515e+06
4.43000000e+02	8.23053685e+06
4.44000000e+02	8.31280901e+06
4.45000000e+02	8.39555242e+06
4.46000000e+02	8.47875718e+06
4.47000000e+02	8.56241261e+06
4.48000000e+02	8.64650723e+06
4.49000000e+02	8.73102872e+06
4.50000000e+02	8.81596385e+06
4.51000000e+02	8.90129842e+06
4.52000000e+02	8.98701721e+06
4.53000000e+02	9.07310393e+06
4.54000000e+02	9.15954110e+06
4.55000000e+02	9.24631006e+06
4.56000000e+02	9.33339081e+06
4.57000000e+02	9.42076200e+06
4.58000000e+02	9.50840080e+06
4.59000000e+02	9.59628283e+06
4.60000000e+02	9.68438207e+06
4.61000000e+02	9.77267076e+06
4.62000000e+02	9.86111928e+06
4.63000000e+02	9.94969606e+06
4.64000000e+02	1.00383675e+07
4.65000000e+02	1.01270977e+07
4.66000000e+02	1.02158485e+07
4.67000000e+02	1.03045795e+07
4.68000000e+02	1.03932473e+07
4.69000000e+02	1.04818061e+07
4.70000000e+02	1.05702072e+07
4.71000000e+02	1.06583987e+07
4.72000000e+02	1.07463258e+07
4.73000000e+02	1.08339300e+07
4.74000000e+02	1.09211495e+07
4.75000000e+02	1.10079189e+07
4.76000000e+02	1.10941687e+07
4.77000000e+02	1.11798255e+07
4.78000000e+02	1.12648116e+07
4.79000000e+02	1.13490450e+07
4.80000000e+02	1.14324390e+07
4.81000000e+02	1.15149020e+07
4.82000000e+02	1.15963377e+07
4.83000000e+02	1.16766445e+07
4.84000000e+02	1.17557154e+07
4.85000000e+02	1.18334381e+07
4.86000000e+02	1.19096945e+07
4.87000000e+02	1.19843607e+07
4.88000000e+02	1.20573070e+07
4.89000000e+02	1.21283976e+07
4.90000000e+02	1.21974906e+07
4.91000000e+02	1.22644379e+07
4.92000000e+02	1.23290853e+07
4.93000000e+02	1.23912723e+07
4.94000000e+02	1.24508322e+07
4.95000000e+02	1.25075926e+07
4.96000000e+02	1.25613750e+07
4.97000000e+02	1.26119951e+07
4.98000000e+02	1.26592635e+07
4.99000000e+02	1.27029857e+07
5.00000000e+02	1.27429625e+07
5.01000000e+02	1.27789909e+07
5.02000000e+02	1.28108643e+07
5.03000000e+02	1.28383733e+07
5.04000000e+02	1.28613069e+07
5.05000000e+02	1.28794528e+07
5.06000000e+02	1.28925992e+07
5.07000000e+02	1.29005353e+07
5.08000000e+02	1.29030529e+07
5.09000000e+02	1.28999478e+07
5.10000000e+02	1.28910214e+07
5.11000000e+02	1.28760822e+07
5.12000000e+02	1.28549473e+07
5.13000000e+02	1.28274449e+07
5.14000000e+02	1.27934154e+07
5.15000000e+02	1.27527140e+07
5.16000000e+02	1.27052122e+07
5.17000000e+02	1.26508002e+07
5.18000000e+02	1.25893886e+07
5.19000000e+02	1.25209103e+07
5.20000000e+02	1.24453227e+07
5.21000000e+02	1.23626090e+07
5.22000000e+02	1.22727799e+07
5.23000000e+02	1.21758752e+07
5.24000000e+02	1.20719644e+07
5.25000000e+02	1.19611480e+07
5.26000000e+02	1.18435580e+07
5.27000000e+02	1.17193578e+07
5.28000000e+02	1.15887424e+07
5.29000000e+02	1.14519376e+07
5.30000000e+02	1.13091993e+07
5.31000000e+02	1.11608120e+07
5.32000000e+02	1.10070873e+07
5.33000000e+02	1.08483617e+07
5.34000000e+02	1.06849944e+07
5.35000000e+02	1.05173644e+07
5.36000000e+02	1.03458676e+07
5.37000000e+02	1.01709139e+07
5.38000000e+02	9.99292340e+06
5.39000000e+02	9.81232336e+06
5.40000000e+02	9.62954458e+06
5.41000000e+02	9.44501801e+06
5.42000000e+02	9.25917129e+06
5.43000000e+02	9.07242559e+06
5.44000000e+02	8.88519251e+06
5.45000000e+02	8.69787125e+06
5.46000000e+02	8.51084607e+06
5.47000000e+02	8.32448396e+06
5.48000000e+02	8.13913276e+06
5.49000000e+02	7.95511945e+06
5.50000000e+02	7.77274891e+06
5.51000000e+02	7.59230296e+06
5.52000000e+02	7.41403968e+06
5.53000000e+02	7.23819309e+06
5.54000000e+02	7.06497316e+06
5.55000000e+02	6.89456594e+06
5.56000000e+02	6.72713411e+06
5.57000000e+02	6.56281755e+06
5.58000000e+02	6.40173428e+06
5.59000000e+02	6.24398135e+06
5.60000000e+02	6.08963604e+06
5.61000000e+02	5.93875697e+06
5.62000000e+02	5.79138544e+06
5.63000000e+02	5.64754666e+06
5.64000000e+02	5.50725112e+06
5.65000000e+02	5.37049585e+06
5.66000000e+02	5.23726579e+06
5.67000000e+02	5.10753497e+06
5.68000000e+02	4.98126776e+06
5.69000000e+02	4.85842007e+06
5.70000000e+02	4.73894040e+06
5.71000000e+02	4.62277088e+06
5.72000000e+02	4.50984827e+06
5.73000000e+02	4.40010484e+06
5.74000000e+02	4.29346918e+06
5.75000000e+02	4.18986695e+06
5.76000000e+02	4.08922161e+06
5.77000000e+02	3.99145496e+06
5.78000000e+02	3.89648775e+06
5.79000000e+02	3.80424018e+06
5.80000000e+02	3.71463226e+06
5.81000000e+02	3.62758429e+06
5.82000000e+02	3.54301708e+06
5.83000000e+02	3.46085236e+06
5.84000000e+02	3.38101289e+06
5.85000000e+02	3.30342280e+06
5.86000000e+02	3.22800766e+06
5.87000000e+02	3.15469464e+06
5.88000000e+02	3.08341268e+06
5.89000000e+02	3.01409251e+06
5.90000000e+02	2.94666673e+06
5.91000000e+02	2.88106991e+06
5.92000000e+02	2.81723854e+06
5.93000000e+02	2.75511110e+06
5.94000000e+02	2.69462806e+06
5.95000000e+02	2.63573183e+06
5.96000000e+02	2.57836680e+06
5.97000000e+02	2.52247928e+06
5.98000000e+02	2.46801746e+06
5.99000000e+02	2.41493140e+06
6.00000000e+02	2.36317298e+06
6.01000000e+02	2.31269586e+06
6.02000000e+02	2.26345540e+06
6.03000000e+02	2.21540866e+06
6.04000000e+02	2.16851431e+06
6.05000000e+02	2.12273260e+06
6.06000000e+02	2.07802531e+06
6.07000000e+02	2.03435566e+06
6.08000000e+02	1.99168833e+06
6.09000000e+02	1.94998932e+06
6.10000000e+02	1.90922599e+06
6.11000000e+02	1.86936693e+06
6.12000000e+02	1.83038196e+06
6.13000000e+02	1.79224207e+06
6.14000000e+02	1.75491939e+06
6.15000000e+02	1.71838708e+06
6.16000000e+02	1.68261939e+06
6.17000000e+02	1.64759152e+06
6.18000000e+02	1.61327964e+06
6.19000000e+02	1.57966083e+06
6.20000000e+02	1.54671303e+06
6.21000000e+02	1.51441504e+06
6.22000000e+02	1.48274645e+06
6.23000000e+02	1.45168759e+06
6.24000000e+02	1.42121958e+06
6.25000000e+02	1.39132418e+06
6.26000000e+02	1.36198387e+06
6.27000000e+02	1.33318175e+06
6.28000000e+02	1.30490154e+06
6.29000000e+02	1.27712755e+06
6.30000000e+02	1.24984465e+06
6.31000000e+02	1.22303824e+06
6.32000000e+02	1.19669425e+06
6.33000000e+02	1.17079909e+06
6.34000000e+02	1.14533963e+06
6.35000000e+02	1.12030321e+06
6.36000000e+02	1.09567759e+06
6.37000000e+02	1.07145092e+06
6.38000000e+02	1.04761177e+06
6.39000000e+02	1.02414904e+06
6.40000000e+02	1.00105204e+06
6.41000000e+02	9.78310357e+05
6.42000000e+02	9.55913945e+05
6.43000000e+02	9.33853045e+05
6.44000000e+02	9.12118191e+05
6.45000000e+02	8.90700198e+05
6.46000000e+02	8.69590141e+05
6.47000000e+02	8.48779351e+05
6.48000000e+02	8.28259395e+05
6.49000000e+02	8.08022063e+05
6.50000000e+02	7.88059361e+05
6.51000000e+02	7.68363500e+05
6.52000000e+02	7.48926884e+05
6.53000000e+02	7.29742097e+05
6.54000000e+02	7.10801893e+05
6.55000000e+02	6.92099193e+05
6.56000000e+02	6.73627068e+05
6.57000000e+02	6.55378733e+05
6.58000000e+02	6.37347538e+05
6.59000000e+02	6.19526963e+05
