# Profil de ElecX au temps 1.200000000000016e-11 
# simu : /Volumes/MERCURE/JOBS/Zeq1_tanh_50mic_5e20_B0_20ps/GNU/ElecX@y-c.set
# col 0 : abscisse (um)
# col 1 : ElecX (V/m)
0.00000000e+00	0.00000000e+00
1.00000000e+00	2.55994714e+03
2.00000000e+00	2.06549554e+03
3.00000000e+00	2.86365670e+03
4.00000000e+00	4.75100971e+03
5.00000000e+00	5.85491152e+03
6.00000000e+00	7.01248670e+03
7.00000000e+00	8.18216243e+03
8.00000000e+00	9.35464764e+03
9.00000000e+00	1.05290465e+04
1.00000000e+01	1.17054178e+04
1.10000000e+01	1.28839508e+04
1.20000000e+01	1.40648552e+04
1.30000000e+01	1.52483423e+04
1.40000000e+01	1.64346232e+04
1.50000000e+01	1.76239070e+04
1.60000000e+01	1.88164023e+04
1.70000000e+01	2.00123167e+04
1.80000000e+01	2.12118561e+04
1.90000000e+01	2.24152259e+04
2.00000000e+01	2.36226303e+04
2.10000000e+01	2.48342718e+04
2.20000000e+01	2.60503521e+04
2.30000000e+01	2.72710716e+04
2.40000000e+01	2.84966289e+04
2.50000000e+01	2.97272213e+04
2.60000000e+01	3.09630449e+04
2.70000000e+01	3.22042938e+04
2.80000000e+01	3.34511607e+04
2.90000000e+01	3.47038368e+04
3.00000000e+01	3.59625111e+04
3.10000000e+01	3.72273714e+04
3.20000000e+01	3.84986035e+04
3.30000000e+01	3.97763912e+04
3.40000000e+01	4.10609163e+04
3.50000000e+01	4.23523597e+04
3.60000000e+01	4.36508989e+04
3.70000000e+01	4.49567106e+04
3.80000000e+01	4.62699689e+04
3.90000000e+01	4.75908460e+04
4.00000000e+01	4.89195123e+04
4.10000000e+01	5.02561357e+04
4.20000000e+01	5.16008826e+04
4.30000000e+01	5.29539166e+04
4.40000000e+01	5.43153999e+04
4.50000000e+01	5.56854922e+04
4.60000000e+01	5.70643510e+04
4.70000000e+01	5.84521319e+04
4.80000000e+01	5.98489883e+04
4.90000000e+01	6.12550715e+04
5.00000000e+01	6.26705306e+04
5.10000000e+01	6.40955126e+04
5.20000000e+01	6.55301624e+04
5.30000000e+01	6.69746230e+04
5.40000000e+01	6.84290350e+04
5.50000000e+01	6.98935371e+04
5.60000000e+01	7.13682657e+04
5.70000000e+01	7.28533559e+04
5.80000000e+01	7.43489401e+04
5.90000000e+01	7.58551489e+04
6.00000000e+01	7.73721111e+04
6.10000000e+01	7.88999536e+04
6.20000000e+01	8.04388013e+04
6.30000000e+01	8.19887773e+04
6.40000000e+01	8.35500032e+04
6.50000000e+01	8.51225985e+04
6.60000000e+01	8.67066812e+04
6.70000000e+01	8.83023677e+04
6.80000000e+01	8.99097727e+04
6.90000000e+01	9.15290096e+04
7.00000000e+01	9.31601901e+04
7.10000000e+01	9.48034246e+04
7.20000000e+01	9.64588224e+04
7.30000000e+01	9.81264911e+04
7.40000000e+01	9.98065373e+04
7.50000000e+01	1.01499067e+05
7.60000000e+01	1.03204184e+05
7.70000000e+01	1.04921992e+05
7.80000000e+01	1.06652595e+05
7.90000000e+01	1.08396093e+05
8.00000000e+01	1.10152588e+05
8.10000000e+01	1.11922181e+05
8.20000000e+01	1.13704971e+05
8.30000000e+01	1.15501059e+05
8.40000000e+01	1.17310543e+05
8.50000000e+01	1.19133524e+05
8.60000000e+01	1.20970098e+05
8.70000000e+01	1.22820367e+05
8.80000000e+01	1.24684428e+05
8.90000000e+01	1.26562382e+05
9.00000000e+01	1.28454326e+05
9.10000000e+01	1.30360363e+05
9.20000000e+01	1.32280591e+05
9.30000000e+01	1.34215113e+05
9.40000000e+01	1.36164029e+05
9.50000000e+01	1.38127444e+05
9.60000000e+01	1.40105461e+05
9.70000000e+01	1.42098185e+05
9.80000000e+01	1.44105722e+05
9.90000000e+01	1.46128180e+05
1.00000000e+02	1.48165668e+05
1.01000000e+02	1.50218298e+05
1.02000000e+02	1.52286181e+05
1.03000000e+02	1.54369432e+05
1.04000000e+02	1.56468169e+05
1.05000000e+02	1.58582510e+05
1.06000000e+02	1.60712575e+05
1.07000000e+02	1.62858490e+05
1.08000000e+02	1.65020380e+05
1.09000000e+02	1.67198375e+05
1.10000000e+02	1.69392606e+05
1.11000000e+02	1.71603209e+05
1.12000000e+02	1.73830321e+05
1.13000000e+02	1.76074085e+05
1.14000000e+02	1.78334645e+05
1.15000000e+02	1.80612150e+05
1.16000000e+02	1.82906753e+05
1.17000000e+02	1.85218610e+05
1.18000000e+02	1.87547882e+05
1.19000000e+02	1.89894733e+05
1.20000000e+02	1.92259333e+05
1.21000000e+02	1.94641855e+05
1.22000000e+02	1.97042477e+05
1.23000000e+02	1.99461383e+05
1.24000000e+02	2.01898761e+05
1.25000000e+02	2.04354804e+05
1.26000000e+02	2.06829710e+05
1.27000000e+02	2.09323684e+05
1.28000000e+02	2.11836935e+05
1.29000000e+02	2.14369678e+05
1.30000000e+02	2.16922134e+05
1.31000000e+02	2.19494531e+05
1.32000000e+02	2.22087102e+05
1.33000000e+02	2.24700087e+05
1.34000000e+02	2.27333732e+05
1.35000000e+02	2.29988289e+05
1.36000000e+02	2.32664018e+05
1.37000000e+02	2.35361186e+05
1.38000000e+02	2.38080066e+05
1.39000000e+02	2.40820938e+05
1.40000000e+02	2.43584092e+05
1.41000000e+02	2.46369822e+05
1.42000000e+02	2.49178432e+05
1.43000000e+02	2.52010233e+05
1.44000000e+02	2.54865543e+05
1.45000000e+02	2.57744690e+05
1.46000000e+02	2.60648008e+05
1.47000000e+02	2.63575842e+05
1.48000000e+02	2.66528543e+05
1.49000000e+02	2.69506472e+05
1.50000000e+02	2.72509997e+05
1.51000000e+02	2.75539498e+05
1.52000000e+02	2.78595361e+05
1.53000000e+02	2.81677982e+05
1.54000000e+02	2.84787767e+05
1.55000000e+02	2.87925131e+05
1.56000000e+02	2.91090498e+05
1.57000000e+02	2.94284302e+05
1.58000000e+02	2.97506986e+05
1.59000000e+02	3.00759004e+05
1.60000000e+02	3.04040819e+05
1.61000000e+02	3.07352906e+05
1.62000000e+02	3.10695747e+05
1.63000000e+02	3.14069836e+05
1.64000000e+02	3.17475679e+05
1.65000000e+02	3.20913789e+05
1.66000000e+02	3.24384692e+05
1.67000000e+02	3.27888925e+05
1.68000000e+02	3.31427035e+05
1.69000000e+02	3.34999579e+05
1.70000000e+02	3.38607127e+05
1.71000000e+02	3.42250258e+05
1.72000000e+02	3.45929565e+05
1.73000000e+02	3.49645650e+05
1.74000000e+02	3.53399127e+05
1.75000000e+02	3.57190622e+05
1.76000000e+02	3.61020773e+05
1.77000000e+02	3.64890227e+05
1.78000000e+02	3.68799647e+05
1.79000000e+02	3.72749705e+05
1.80000000e+02	3.76741087e+05
1.81000000e+02	3.80774488e+05
1.82000000e+02	3.84850618e+05
1.83000000e+02	3.88970199e+05
1.84000000e+02	3.93133966e+05
1.85000000e+02	3.97342663e+05
1.86000000e+02	4.01597050e+05
1.87000000e+02	4.05897899e+05
1.88000000e+02	4.10245995e+05
1.89000000e+02	4.14642136e+05
1.90000000e+02	4.19087131e+05
1.91000000e+02	4.23581804e+05
1.92000000e+02	4.28126992e+05
1.93000000e+02	4.32723546e+05
1.94000000e+02	4.37372329e+05
1.95000000e+02	4.42074219e+05
1.96000000e+02	4.46830105e+05
1.97000000e+02	4.51640894e+05
1.98000000e+02	4.56507504e+05
1.99000000e+02	4.61430867e+05
2.00000000e+02	4.66411931e+05
2.01000000e+02	4.71451656e+05
2.02000000e+02	4.76551019e+05
2.03000000e+02	4.81711009e+05
2.04000000e+02	4.86932632e+05
2.05000000e+02	4.92216907e+05
2.06000000e+02	4.97564868e+05
2.07000000e+02	5.02977567e+05
2.08000000e+02	5.08456068e+05
2.09000000e+02	5.14001453e+05
2.10000000e+02	5.19614816e+05
2.11000000e+02	5.25297271e+05
2.12000000e+02	5.31049946e+05
2.13000000e+02	5.36873985e+05
2.14000000e+02	5.42770549e+05
2.15000000e+02	5.48740815e+05
2.16000000e+02	5.54785976e+05
2.17000000e+02	5.60907244e+05
2.18000000e+02	5.67105847e+05
2.19000000e+02	5.73383030e+05
2.20000000e+02	5.79740056e+05
2.21000000e+02	5.86178205e+05
2.22000000e+02	5.92698776e+05
2.23000000e+02	5.99303086e+05
2.24000000e+02	6.05992469e+05
2.25000000e+02	6.12768280e+05
2.26000000e+02	6.19631892e+05
2.27000000e+02	6.26584697e+05
2.28000000e+02	6.33628105e+05
2.29000000e+02	6.40763549e+05
2.30000000e+02	6.47992479e+05
2.31000000e+02	6.55316367e+05
2.32000000e+02	6.62736703e+05
2.33000000e+02	6.70255002e+05
2.34000000e+02	6.77872796e+05
2.35000000e+02	6.85591641e+05
2.36000000e+02	6.93413113e+05
2.37000000e+02	7.01338812e+05
2.38000000e+02	7.09370357e+05
2.39000000e+02	7.17509392e+05
2.40000000e+02	7.25757584e+05
2.41000000e+02	7.34116622e+05
2.42000000e+02	7.42588220e+05
2.43000000e+02	7.51174114e+05
2.44000000e+02	7.59876065e+05
2.45000000e+02	7.68695860e+05
2.46000000e+02	7.77635308e+05
2.47000000e+02	7.86696246e+05
2.48000000e+02	7.95880535e+05
2.49000000e+02	8.05190061e+05
2.50000000e+02	8.14626739e+05
2.51000000e+02	8.24192508e+05
2.52000000e+02	8.33889336e+05
2.53000000e+02	8.43719216e+05
2.54000000e+02	8.53684172e+05
2.55000000e+02	8.63786252e+05
2.56000000e+02	8.74027535e+05
2.57000000e+02	8.84410129e+05
2.58000000e+02	8.94936169e+05
2.59000000e+02	9.05607822e+05
2.60000000e+02	9.16427284e+05
2.61000000e+02	9.27396780e+05
2.62000000e+02	9.38518567e+05
2.63000000e+02	9.49794932e+05
2.64000000e+02	9.61228194e+05
2.65000000e+02	9.72820703e+05
2.66000000e+02	9.84574843e+05
2.67000000e+02	9.96493029e+05
2.68000000e+02	1.00857771e+06
2.69000000e+02	1.02083136e+06
2.70000000e+02	1.03325650e+06
2.71000000e+02	1.04585568e+06
2.72000000e+02	1.05863147e+06
2.73000000e+02	1.07158651e+06
2.74000000e+02	1.08472343e+06
2.75000000e+02	1.09804492e+06
2.76000000e+02	1.11155371e+06
2.77000000e+02	1.12525256e+06
2.78000000e+02	1.13914426e+06
2.79000000e+02	1.15323164e+06
2.80000000e+02	1.16751756e+06
2.81000000e+02	1.18200495e+06
2.82000000e+02	1.19669672e+06
2.83000000e+02	1.21159588e+06
2.84000000e+02	1.22670542e+06
2.85000000e+02	1.24202842e+06
2.86000000e+02	1.25756796e+06
2.87000000e+02	1.27332718e+06
2.88000000e+02	1.28930925e+06
2.89000000e+02	1.30551737e+06
2.90000000e+02	1.32195481e+06
2.91000000e+02	1.33862485e+06
2.92000000e+02	1.35553081e+06
2.93000000e+02	1.37267608e+06
2.94000000e+02	1.39006406e+06
2.95000000e+02	1.40769819e+06
2.96000000e+02	1.42558197e+06
2.97000000e+02	1.44371893e+06
2.98000000e+02	1.46211264e+06
2.99000000e+02	1.48076672e+06
3.00000000e+02	1.49968480e+06
3.01000000e+02	1.51887059e+06
3.02000000e+02	1.53832782e+06
3.03000000e+02	1.55806026e+06
3.04000000e+02	1.57807173e+06
3.05000000e+02	1.59836608e+06
3.06000000e+02	1.61894721e+06
3.07000000e+02	1.63981905e+06
3.08000000e+02	1.66098559e+06
3.09000000e+02	1.68245083e+06
3.10000000e+02	1.70421884e+06
3.11000000e+02	1.72629371e+06
3.12000000e+02	1.74867957e+06
3.13000000e+02	1.77138061e+06
3.14000000e+02	1.79440103e+06
3.15000000e+02	1.81774509e+06
3.16000000e+02	1.84141709e+06
3.17000000e+02	1.86542135e+06
3.18000000e+02	1.88976224e+06
3.19000000e+02	1.91444416e+06
3.20000000e+02	1.93947156e+06
3.21000000e+02	1.96484891e+06
3.22000000e+02	1.99058074e+06
3.23000000e+02	2.01667158e+06
3.24000000e+02	2.04312602e+06
3.25000000e+02	2.06994868e+06
3.26000000e+02	2.09714421e+06
3.27000000e+02	2.12471730e+06
3.28000000e+02	2.15267265e+06
3.29000000e+02	2.18101502e+06
3.30000000e+02	2.20974919e+06
3.31000000e+02	2.23887995e+06
3.32000000e+02	2.26841215e+06
3.33000000e+02	2.29835064e+06
3.34000000e+02	2.32870032e+06
3.35000000e+02	2.35946610e+06
3.36000000e+02	2.39065291e+06
3.37000000e+02	2.42226573e+06
3.38000000e+02	2.45430952e+06
3.39000000e+02	2.48678930e+06
3.40000000e+02	2.51971010e+06
3.41000000e+02	2.55307694e+06
3.42000000e+02	2.58689489e+06
3.43000000e+02	2.62116903e+06
3.44000000e+02	2.65590444e+06
3.45000000e+02	2.69110622e+06
3.46000000e+02	2.72677948e+06
3.47000000e+02	2.76292934e+06
3.48000000e+02	2.79956094e+06
3.49000000e+02	2.83667939e+06
3.50000000e+02	2.87428984e+06
3.51000000e+02	2.91239743e+06
3.52000000e+02	2.95100729e+06
3.53000000e+02	2.99012456e+06
3.54000000e+02	3.02975437e+06
3.55000000e+02	3.06990186e+06
3.56000000e+02	3.11057213e+06
3.57000000e+02	3.15177030e+06
3.58000000e+02	3.19350146e+06
3.59000000e+02	3.23577069e+06
3.60000000e+02	3.27858306e+06
3.61000000e+02	3.32194361e+06
3.62000000e+02	3.36585736e+06
3.63000000e+02	3.41032931e+06
3.64000000e+02	3.45536444e+06
3.65000000e+02	3.50096768e+06
3.66000000e+02	3.54714394e+06
3.67000000e+02	3.59389809e+06
3.68000000e+02	3.64123498e+06
3.69000000e+02	3.68915939e+06
3.70000000e+02	3.73767608e+06
3.71000000e+02	3.78678976e+06
3.72000000e+02	3.83650508e+06
3.73000000e+02	3.88682664e+06
3.74000000e+02	3.93775900e+06
3.75000000e+02	3.98930664e+06
3.76000000e+02	4.04147399e+06
3.77000000e+02	4.09426542e+06
3.78000000e+02	4.14768522e+06
3.79000000e+02	4.20173760e+06
3.80000000e+02	4.25642673e+06
3.81000000e+02	4.31175667e+06
3.82000000e+02	4.36773141e+06
3.83000000e+02	4.42435484e+06
3.84000000e+02	4.48163078e+06
3.85000000e+02	4.53956296e+06
3.86000000e+02	4.59815499e+06
3.87000000e+02	4.65741039e+06
3.88000000e+02	4.71733259e+06
3.89000000e+02	4.77792489e+06
3.90000000e+02	4.83919050e+06
3.91000000e+02	4.90113248e+06
3.92000000e+02	4.96375380e+06
3.93000000e+02	5.02705730e+06
3.94000000e+02	5.09104568e+06
3.95000000e+02	5.15572151e+06
3.96000000e+02	5.22108723e+06
3.97000000e+02	5.28714513e+06
3.98000000e+02	5.35389734e+06
3.99000000e+02	5.42134585e+06
4.00000000e+02	5.48949251e+06
4.01000000e+02	5.55833897e+06
4.02000000e+02	5.62788673e+06
4.03000000e+02	5.69813712e+06
4.04000000e+02	5.76909128e+06
4.05000000e+02	5.84075016e+06
4.06000000e+02	5.91311454e+06
4.07000000e+02	5.98618497e+06
4.08000000e+02	6.05996182e+06
4.09000000e+02	6.13444522e+06
4.10000000e+02	6.20963510e+06
4.11000000e+02	6.28553115e+06
4.12000000e+02	6.36213284e+06
4.13000000e+02	6.43943937e+06
4.14000000e+02	6.51744969e+06
4.15000000e+02	6.59616250e+06
4.16000000e+02	6.67557620e+06
4.17000000e+02	6.75568893e+06
4.18000000e+02	6.83649851e+06
4.19000000e+02	6.91800246e+06
4.20000000e+02	7.00019798e+06
4.21000000e+02	7.08308191e+06
4.22000000e+02	7.16665077e+06
4.23000000e+02	7.25090068e+06
4.24000000e+02	7.33582740e+06
4.25000000e+02	7.42142627e+06
4.26000000e+02	7.50769222e+06
4.27000000e+02	7.59461973e+06
4.28000000e+02	7.68220281e+06
4.29000000e+02	7.77043499e+06
4.30000000e+02	7.85930928e+06
4.31000000e+02	7.94881817e+06
4.32000000e+02	8.03895355e+06
4.33000000e+02	8.12970674e+06
4.34000000e+02	8.22106842e+06
4.35000000e+02	8.31302859e+06
4.36000000e+02	8.40557658e+06
4.37000000e+02	8.49870094e+06
4.38000000e+02	8.59238947e+06
4.39000000e+02	8.68662912e+06
4.40000000e+02	8.78140597e+06
4.41000000e+02	8.87670519e+06
4.42000000e+02	8.97251094e+06
4.43000000e+02	9.06880636e+06
4.44000000e+02	9.16557349e+06
4.45000000e+02	9.26279321e+06
4.46000000e+02	9.36044514e+06
4.47000000e+02	9.45850763e+06
4.48000000e+02	9.55695763e+06
4.49000000e+02	9.65577060e+06
4.50000000e+02	9.75492049e+06
4.51000000e+02	9.85437958e+06
4.52000000e+02	9.95411839e+06
4.53000000e+02	1.00541056e+07
4.54000000e+02	1.01543081e+07
4.55000000e+02	1.02546903e+07
4.56000000e+02	1.03552149e+07
4.57000000e+02	1.04558420e+07
4.58000000e+02	1.05565293e+07
4.59000000e+02	1.06572319e+07
4.60000000e+02	1.07579024e+07
4.61000000e+02	1.08584902e+07
4.62000000e+02	1.09589417e+07
4.63000000e+02	1.10592005e+07
4.64000000e+02	1.11592062e+07
4.65000000e+02	1.12588955e+07
4.66000000e+02	1.13582008e+07
4.67000000e+02	1.14570511e+07
4.68000000e+02	1.15553709e+07
4.69000000e+02	1.16530808e+07
4.70000000e+02	1.17500964e+07
4.71000000e+02	1.18463292e+07
4.72000000e+02	1.19416854e+07
4.73000000e+02	1.20360663e+07
4.74000000e+02	1.21293679e+07
4.75000000e+02	1.22214806e+07
4.76000000e+02	1.23122894e+07
4.77000000e+02	1.24016732e+07
4.78000000e+02	1.24895051e+07
4.79000000e+02	1.25756518e+07
4.80000000e+02	1.26599741e+07
4.81000000e+02	1.27423258e+07
4.82000000e+02	1.28225548e+07
4.83000000e+02	1.29005020e+07
4.84000000e+02	1.29760018e+07
4.85000000e+02	1.30488821e+07
4.86000000e+02	1.31189641e+07
4.87000000e+02	1.31860626e+07
4.88000000e+02	1.32499862e+07
4.89000000e+02	1.33105373e+07
4.90000000e+02	1.33675127e+07
4.91000000e+02	1.34207036e+07
4.92000000e+02	1.34698964e+07
4.93000000e+02	1.35148730e+07
4.94000000e+02	1.35554117e+07
4.95000000e+02	1.35912876e+07
4.96000000e+02	1.36222739e+07
4.97000000e+02	1.36481424e+07
4.98000000e+02	1.36686651e+07
4.99000000e+02	1.36836150e+07
5.00000000e+02	1.36927678e+07
5.01000000e+02	1.36959030e+07
5.02000000e+02	1.36928059e+07
5.03000000e+02	1.36832690e+07
5.04000000e+02	1.36670941e+07
5.05000000e+02	1.36440940e+07
5.06000000e+02	1.36140944e+07
5.07000000e+02	1.35769365e+07
5.08000000e+02	1.35324784e+07
5.09000000e+02	1.34805976e+07
5.10000000e+02	1.34211934e+07
5.11000000e+02	1.33541881e+07
5.12000000e+02	1.32795299e+07
5.13000000e+02	1.31971942e+07
5.14000000e+02	1.31071852e+07
5.15000000e+02	1.30095378e+07
5.16000000e+02	1.29043187e+07
5.17000000e+02	1.27916271e+07
5.18000000e+02	1.26715957e+07
5.19000000e+02	1.25443906e+07
5.20000000e+02	1.24102116e+07
5.21000000e+02	1.22692916e+07
5.22000000e+02	1.21218956e+07
5.23000000e+02	1.19683196e+07
5.24000000e+02	1.18088887e+07
5.25000000e+02	1.16439552e+07
5.26000000e+02	1.14738961e+07
5.27000000e+02	1.12991103e+07
5.28000000e+02	1.11200156e+07
5.29000000e+02	1.09370454e+07
5.30000000e+02	1.07506451e+07
5.31000000e+02	1.05612688e+07
5.32000000e+02	1.03693753e+07
5.33000000e+02	1.01754246e+07
5.34000000e+02	9.97987418e+06
5.35000000e+02	9.78317591e+06
5.36000000e+02	9.58577232e+06
5.37000000e+02	9.38809373e+06
5.38000000e+02	9.19055545e+06
5.39000000e+02	8.99355529e+06
5.40000000e+02	8.79747135e+06
5.41000000e+02	8.60266022e+06
5.42000000e+02	8.40945550e+06
5.43000000e+02	8.21816670e+06
5.44000000e+02	8.02907843e+06
5.45000000e+02	7.84244994e+06
5.46000000e+02	7.65851502e+06
5.47000000e+02	7.47748210e+06
5.48000000e+02	7.29953467e+06
5.49000000e+02	7.12483192e+06
5.50000000e+02	6.95350951e+06
5.51000000e+02	6.78568065e+06
5.52000000e+02	6.62143714e+06
5.53000000e+02	6.46085063e+06
5.54000000e+02	6.30397392e+06
5.55000000e+02	6.15084232e+06
5.56000000e+02	6.00147502e+06
5.57000000e+02	5.85587646e+06
5.58000000e+02	5.71403770e+06
5.59000000e+02	5.57593779e+06
5.60000000e+02	5.44154500e+06
5.61000000e+02	5.31081814e+06
5.62000000e+02	5.18370766e+06
5.63000000e+02	5.06015682e+06
5.64000000e+02	4.94010272e+06
5.65000000e+02	4.82347723e+06
5.66000000e+02	4.71020794e+06
5.67000000e+02	4.60021891e+06
5.68000000e+02	4.49343147e+06
5.69000000e+02	4.38976488e+06
5.70000000e+02	4.28913690e+06
5.71000000e+02	4.19146439e+06
5.72000000e+02	4.09666372e+06
5.73000000e+02	4.00465124e+06
5.74000000e+02	3.91534364e+06
5.75000000e+02	3.82865826e+06
5.76000000e+02	3.74451335e+06
5.77000000e+02	3.66282834e+06
5.78000000e+02	3.58352402e+06
5.79000000e+02	3.50652267e+06
5.80000000e+02	3.43174822e+06
5.81000000e+02	3.35912641e+06
5.82000000e+02	3.28858473e+06
5.83000000e+02	3.22005263e+06
5.84000000e+02	3.15346145e+06
5.85000000e+02	3.08874454e+06
5.86000000e+02	3.02583718e+06
5.87000000e+02	2.96467663e+06
5.88000000e+02	2.90520212e+06
5.89000000e+02	2.84735482e+06
5.90000000e+02	2.79107781e+06
5.91000000e+02	2.73631604e+06
5.92000000e+02	2.68301631e+06
5.93000000e+02	2.63112721e+06
5.94000000e+02	2.58059910e+06
5.95000000e+02	2.53138403e+06
5.96000000e+02	2.48343571e+06
5.97000000e+02	2.43670944e+06
5.98000000e+02	2.39116210e+06
5.99000000e+02	2.34675205e+06
6.00000000e+02	2.30343909e+06
6.01000000e+02	2.26118444e+06
6.02000000e+02	2.21995066e+06
6.03000000e+02	2.17970158e+06
6.04000000e+02	2.14040232e+06
6.05000000e+02	2.10201916e+06
6.06000000e+02	2.06451955e+06
6.07000000e+02	2.02787204e+06
6.08000000e+02	1.99204625e+06
6.09000000e+02	1.95701280e+06
6.10000000e+02	1.92274331e+06
6.11000000e+02	1.88921032e+06
6.12000000e+02	1.85638729e+06
6.13000000e+02	1.82424851e+06
6.14000000e+02	1.79276914e+06
6.15000000e+02	1.76192510e+06
6.16000000e+02	1.73169309e+06
6.17000000e+02	1.70205052e+06
6.18000000e+02	1.67297551e+06
6.19000000e+02	1.64444687e+06
6.20000000e+02	1.61644402e+06
6.21000000e+02	1.58894703e+06
6.22000000e+02	1.56193654e+06
6.23000000e+02	1.53539376e+06
6.24000000e+02	1.50930047e+06
6.25000000e+02	1.48363895e+06
6.26000000e+02	1.45839201e+06
6.27000000e+02	1.43354292e+06
6.28000000e+02	1.40907545e+06
6.29000000e+02	1.38497381e+06
6.30000000e+02	1.36122262e+06
6.31000000e+02	1.33780696e+06
6.32000000e+02	1.31471228e+06
6.33000000e+02	1.29192446e+06
6.34000000e+02	1.26942974e+06
6.35000000e+02	1.24721472e+06
6.36000000e+02	1.22526636e+06
6.37000000e+02	1.20357199e+06
6.38000000e+02	1.18211926e+06
6.39000000e+02	1.16089615e+06
6.40000000e+02	1.13989096e+06
6.41000000e+02	1.11909230e+06
6.42000000e+02	1.09848909e+06
6.43000000e+02	1.07807057e+06
6.44000000e+02	1.05782624e+06
6.45000000e+02	1.03774593e+06
6.46000000e+02	1.01781972e+06
6.47000000e+02	9.98037988e+05
6.48000000e+02	9.78391402e+05
6.49000000e+02	9.58870892e+05
6.50000000e+02	9.39467657e+05
6.51000000e+02	9.20173171e+05
6.52000000e+02	9.00979170e+05
6.53000000e+02	8.81877656e+05
6.54000000e+02	8.62860890e+05
6.55000000e+02	8.43921390e+05
6.56000000e+02	8.25052062e+05
6.57000000e+02	8.06245915e+05
6.58000000e+02	7.87495481e+05
6.59000000e+02	7.68795716e+05
