# Profil de ElecX au temps 1.900999999999955e-11 
# simu : /Volumes/MERCURE/JOBS/Zeq1_tanh_50mic_5e20_B0_20ps/GNU/ElecX@y-c.set
# col 0 : abscisse (um)
# col 1 : ElecX (V/m)
0.00000000e+00	0.00000000e+00
1.00000000e+00	4.03725267e+03
2.00000000e+00	3.27085599e+03
3.00000000e+00	4.55712949e+03
4.00000000e+00	7.53650645e+03
5.00000000e+00	9.28325568e+03
6.00000000e+00	1.11167235e+04
7.00000000e+00	1.29686057e+04
8.00000000e+00	1.48236872e+04
9.00000000e+00	1.66803843e+04
1.00000000e+01	1.85386429e+04
1.10000000e+01	2.03985983e+04
1.20000000e+01	2.22603013e+04
1.30000000e+01	2.41240579e+04
1.40000000e+01	2.59898490e+04
1.50000000e+01	2.78580423e+04
1.60000000e+01	2.97286822e+04
1.70000000e+01	3.16019650e+04
1.80000000e+01	3.34779687e+04
1.90000000e+01	3.53570205e+04
2.00000000e+01	3.72391855e+04
2.10000000e+01	3.91247367e+04
2.20000000e+01	4.10135267e+04
2.30000000e+01	4.29061017e+04
2.40000000e+01	4.48024652e+04
2.50000000e+01	4.67027990e+04
2.60000000e+01	4.86071987e+04
2.70000000e+01	5.05159540e+04
2.80000000e+01	5.24289857e+04
2.90000000e+01	5.43469124e+04
3.00000000e+01	5.62694375e+04
3.10000000e+01	5.81970334e+04
3.20000000e+01	6.01296955e+04
3.30000000e+01	6.20675455e+04
3.40000000e+01	6.40110217e+04
3.50000000e+01	6.59600863e+04
3.60000000e+01	6.79149173e+04
3.70000000e+01	6.98755940e+04
3.80000000e+01	7.18426750e+04
3.90000000e+01	7.38158458e+04
4.00000000e+01	7.57954244e+04
4.10000000e+01	7.77818199e+04
4.20000000e+01	7.97750874e+04
4.30000000e+01	8.17750249e+04
4.40000000e+01	8.37822146e+04
4.50000000e+01	8.57971199e+04
4.60000000e+01	8.78188880e+04
4.70000000e+01	8.98486754e+04
4.80000000e+01	9.18863990e+04
4.90000000e+01	9.39317650e+04
5.00000000e+01	9.59856852e+04
5.10000000e+01	9.80477231e+04
5.20000000e+01	1.00118409e+05
5.30000000e+01	1.02197620e+05
5.40000000e+01	1.04286045e+05
5.50000000e+01	1.06383234e+05
5.60000000e+01	1.08489660e+05
5.70000000e+01	1.10605723e+05
5.80000000e+01	1.12731154e+05
5.90000000e+01	1.14866428e+05
6.00000000e+01	1.17011645e+05
6.10000000e+01	1.19166964e+05
6.20000000e+01	1.21332803e+05
6.30000000e+01	1.23508536e+05
6.40000000e+01	1.25695747e+05
6.50000000e+01	1.27893141e+05
6.60000000e+01	1.30101824e+05
6.70000000e+01	1.32321972e+05
6.80000000e+01	1.34553026e+05
6.90000000e+01	1.36796033e+05
7.00000000e+01	1.39050651e+05
7.10000000e+01	1.41317447e+05
7.20000000e+01	1.43596192e+05
7.30000000e+01	1.45887160e+05
7.40000000e+01	1.48191173e+05
7.50000000e+01	1.50507500e+05
7.60000000e+01	1.52836779e+05
7.70000000e+01	1.55179367e+05
7.80000000e+01	1.57535092e+05
7.90000000e+01	1.59904474e+05
8.00000000e+01	1.62287600e+05
8.10000000e+01	1.64684456e+05
8.20000000e+01	1.67095544e+05
8.30000000e+01	1.69521084e+05
8.40000000e+01	1.71960794e+05
8.50000000e+01	1.74415669e+05
8.60000000e+01	1.76885207e+05
8.70000000e+01	1.79369873e+05
8.80000000e+01	1.81870204e+05
8.90000000e+01	1.84385660e+05
9.00000000e+01	1.86917298e+05
9.10000000e+01	1.89464810e+05
9.20000000e+01	1.92028361e+05
9.30000000e+01	1.94608659e+05
9.40000000e+01	1.97205333e+05
9.50000000e+01	1.99819100e+05
9.60000000e+01	2.02450036e+05
9.70000000e+01	2.05097831e+05
9.80000000e+01	2.07763779e+05
9.90000000e+01	2.10447337e+05
1.00000000e+02	2.13148604e+05
1.01000000e+02	2.15868592e+05
1.02000000e+02	2.18606842e+05
1.03000000e+02	2.21363823e+05
1.04000000e+02	2.24139798e+05
1.05000000e+02	2.26935167e+05
1.06000000e+02	2.29749774e+05
1.07000000e+02	2.32584181e+05
1.08000000e+02	2.35438648e+05
1.09000000e+02	2.38313188e+05
1.10000000e+02	2.41208352e+05
1.11000000e+02	2.44124259e+05
1.12000000e+02	2.47060862e+05
1.13000000e+02	2.50019251e+05
1.14000000e+02	2.52998768e+05
1.15000000e+02	2.56000142e+05
1.16000000e+02	2.59023781e+05
1.17000000e+02	2.62069544e+05
1.18000000e+02	2.65138140e+05
1.19000000e+02	2.68229477e+05
1.20000000e+02	2.71344065e+05
1.21000000e+02	2.74482150e+05
1.22000000e+02	2.77644035e+05
1.23000000e+02	2.80829898e+05
1.24000000e+02	2.84040196e+05
1.25000000e+02	2.87275193e+05
1.26000000e+02	2.90535038e+05
1.27000000e+02	2.93820257e+05
1.28000000e+02	2.97131094e+05
1.29000000e+02	3.00467694e+05
1.30000000e+02	3.03830578e+05
1.31000000e+02	3.07220171e+05
1.32000000e+02	3.10636503e+05
1.33000000e+02	3.14079608e+05
1.34000000e+02	3.17551170e+05
1.35000000e+02	3.21049607e+05
1.36000000e+02	3.24576962e+05
1.37000000e+02	3.28132511e+05
1.38000000e+02	3.31717167e+05
1.39000000e+02	3.35330845e+05
1.40000000e+02	3.38974212e+05
1.41000000e+02	3.42647665e+05
1.42000000e+02	3.46351201e+05
1.43000000e+02	3.50085921e+05
1.44000000e+02	3.53850981e+05
1.45000000e+02	3.57648110e+05
1.46000000e+02	3.61476790e+05
1.47000000e+02	3.65337949e+05
1.48000000e+02	3.69231130e+05
1.49000000e+02	3.73158184e+05
1.50000000e+02	3.77118038e+05
1.51000000e+02	3.81111746e+05
1.52000000e+02	3.85139938e+05
1.53000000e+02	3.89202654e+05
1.54000000e+02	3.93300563e+05
1.55000000e+02	3.97433731e+05
1.56000000e+02	4.01602939e+05
1.57000000e+02	4.05808407e+05
1.58000000e+02	4.10050736e+05
1.59000000e+02	4.14330452e+05
1.60000000e+02	4.18647608e+05
1.61000000e+02	4.23003188e+05
1.62000000e+02	4.27397525e+05
1.63000000e+02	4.31830434e+05
1.64000000e+02	4.36303236e+05
1.65000000e+02	4.40815885e+05
1.66000000e+02	4.45369588e+05
1.67000000e+02	4.49963897e+05
1.68000000e+02	4.54599334e+05
1.69000000e+02	4.59277629e+05
1.70000000e+02	4.63998107e+05
1.71000000e+02	4.68761187e+05
1.72000000e+02	4.73568781e+05
1.73000000e+02	4.78419679e+05
1.74000000e+02	4.83315587e+05
1.75000000e+02	4.88257076e+05
1.76000000e+02	4.93243542e+05
1.77000000e+02	4.98277235e+05
1.78000000e+02	5.03356807e+05
1.79000000e+02	5.08485126e+05
1.80000000e+02	5.13660010e+05
1.81000000e+02	5.18885143e+05
1.82000000e+02	5.24157899e+05
1.83000000e+02	5.29481730e+05
1.84000000e+02	5.34854929e+05
1.85000000e+02	5.40280038e+05
1.86000000e+02	5.45756389e+05
1.87000000e+02	5.51284857e+05
1.88000000e+02	5.56867026e+05
1.89000000e+02	5.62501605e+05
1.90000000e+02	5.68191324e+05
1.91000000e+02	5.73935818e+05
1.92000000e+02	5.79735122e+05
1.93000000e+02	5.85591572e+05
1.94000000e+02	5.91504414e+05
1.95000000e+02	5.97474871e+05
1.96000000e+02	6.03503775e+05
1.97000000e+02	6.09591765e+05
1.98000000e+02	6.15739079e+05
1.99000000e+02	6.21947212e+05
2.00000000e+02	6.28216421e+05
2.01000000e+02	6.34547257e+05
2.02000000e+02	6.40941208e+05
2.03000000e+02	6.47398545e+05
2.04000000e+02	6.53920053e+05
2.05000000e+02	6.60506275e+05
2.06000000e+02	6.67158588e+05
2.07000000e+02	6.73877431e+05
2.08000000e+02	6.80663690e+05
2.09000000e+02	6.87517802e+05
2.10000000e+02	6.94441315e+05
2.11000000e+02	7.01434511e+05
2.12000000e+02	7.08498564e+05
2.13000000e+02	7.15633889e+05
2.14000000e+02	7.22841751e+05
2.15000000e+02	7.30123008e+05
2.16000000e+02	7.37478290e+05
2.17000000e+02	7.44908826e+05
2.18000000e+02	7.52415057e+05
2.19000000e+02	7.59998374e+05
2.20000000e+02	7.67659333e+05
2.21000000e+02	7.75399259e+05
2.22000000e+02	7.83218633e+05
2.23000000e+02	7.91118844e+05
2.24000000e+02	7.99100616e+05
2.25000000e+02	8.07164765e+05
2.26000000e+02	8.15312749e+05
2.27000000e+02	8.23545189e+05
2.28000000e+02	8.31863229e+05
2.29000000e+02	8.40267913e+05
2.30000000e+02	8.48760152e+05
2.31000000e+02	8.57341136e+05
2.32000000e+02	8.66011862e+05
2.33000000e+02	8.74773316e+05
2.34000000e+02	8.83626668e+05
2.35000000e+02	8.92573017e+05
2.36000000e+02	9.01613447e+05
2.37000000e+02	9.10749027e+05
2.38000000e+02	9.19980935e+05
2.39000000e+02	9.29310301e+05
2.40000000e+02	9.38738258e+05
2.41000000e+02	9.48265957e+05
2.42000000e+02	9.57894619e+05
2.43000000e+02	9.67625363e+05
2.44000000e+02	9.77459442e+05
2.45000000e+02	9.87398049e+05
2.46000000e+02	9.97442364e+05
2.47000000e+02	1.00759367e+06
2.48000000e+02	1.01785316e+06
2.49000000e+02	1.02822222e+06
2.50000000e+02	1.03870203e+06
2.51000000e+02	1.04929390e+06
2.52000000e+02	1.05999912e+06
2.53000000e+02	1.07081892e+06
2.54000000e+02	1.08175477e+06
2.55000000e+02	1.09280792e+06
2.56000000e+02	1.10397979e+06
2.57000000e+02	1.11527171e+06
2.58000000e+02	1.12668505e+06
2.59000000e+02	1.13822120e+06
2.60000000e+02	1.14988157e+06
2.61000000e+02	1.16166757e+06
2.62000000e+02	1.17358063e+06
2.63000000e+02	1.18562221e+06
2.64000000e+02	1.19779375e+06
2.65000000e+02	1.21009673e+06
2.66000000e+02	1.22253264e+06
2.67000000e+02	1.23510298e+06
2.68000000e+02	1.24780926e+06
2.69000000e+02	1.26065296e+06
2.70000000e+02	1.27363571e+06
2.71000000e+02	1.28675901e+06
2.72000000e+02	1.30002441e+06
2.73000000e+02	1.31343353e+06
2.74000000e+02	1.32698794e+06
2.75000000e+02	1.34068920e+06
2.76000000e+02	1.35453890e+06
2.77000000e+02	1.36853893e+06
2.78000000e+02	1.38269078e+06
2.79000000e+02	1.39699610e+06
2.80000000e+02	1.41145659e+06
2.81000000e+02	1.42607393e+06
2.82000000e+02	1.44084982e+06
2.83000000e+02	1.45578600e+06
2.84000000e+02	1.47088418e+06
2.85000000e+02	1.48614612e+06
2.86000000e+02	1.50157358e+06
2.87000000e+02	1.51716833e+06
2.88000000e+02	1.53293217e+06
2.89000000e+02	1.54886688e+06
2.90000000e+02	1.56497429e+06
2.91000000e+02	1.58125622e+06
2.92000000e+02	1.59771452e+06
2.93000000e+02	1.61435104e+06
2.94000000e+02	1.63116765e+06
2.95000000e+02	1.64816624e+06
2.96000000e+02	1.66534869e+06
2.97000000e+02	1.68271691e+06
2.98000000e+02	1.70027284e+06
2.99000000e+02	1.71801839e+06
3.00000000e+02	1.73595553e+06
3.01000000e+02	1.75408620e+06
3.02000000e+02	1.77241239e+06
3.03000000e+02	1.79093607e+06
3.04000000e+02	1.80965924e+06
3.05000000e+02	1.82858392e+06
3.06000000e+02	1.84771212e+06
3.07000000e+02	1.86704589e+06
3.08000000e+02	1.88658726e+06
3.09000000e+02	1.90633830e+06
3.10000000e+02	1.92630107e+06
3.11000000e+02	1.94647766e+06
3.12000000e+02	1.96687016e+06
3.13000000e+02	1.98748067e+06
3.14000000e+02	2.00831132e+06
3.15000000e+02	2.02936421e+06
3.16000000e+02	2.05064150e+06
3.17000000e+02	2.07214533e+06
3.18000000e+02	2.09387786e+06
3.19000000e+02	2.11584126e+06
3.20000000e+02	2.13803770e+06
3.21000000e+02	2.16046937e+06
3.22000000e+02	2.18313848e+06
3.23000000e+02	2.20604722e+06
3.24000000e+02	2.22919781e+06
3.25000000e+02	2.25259249e+06
3.26000000e+02	2.27623348e+06
3.27000000e+02	2.30012302e+06
3.28000000e+02	2.32426338e+06
3.29000000e+02	2.34865680e+06
3.30000000e+02	2.37330555e+06
3.31000000e+02	2.39821192e+06
3.32000000e+02	2.42337817e+06
3.33000000e+02	2.44880661e+06
3.34000000e+02	2.47449952e+06
3.35000000e+02	2.50045920e+06
3.36000000e+02	2.52668798e+06
3.37000000e+02	2.55318815e+06
3.38000000e+02	2.57996205e+06
3.39000000e+02	2.60701200e+06
3.40000000e+02	2.63434032e+06
3.41000000e+02	2.66194937e+06
3.42000000e+02	2.68984146e+06
3.43000000e+02	2.71801896e+06
3.44000000e+02	2.74648421e+06
3.45000000e+02	2.77523957e+06
3.46000000e+02	2.80428738e+06
3.47000000e+02	2.83363001e+06
3.48000000e+02	2.86326982e+06
3.49000000e+02	2.89320918e+06
3.50000000e+02	2.92345045e+06
3.51000000e+02	2.95399600e+06
3.52000000e+02	2.98484820e+06
3.53000000e+02	3.01600942e+06
3.54000000e+02	3.04748204e+06
3.55000000e+02	3.07926842e+06
3.56000000e+02	3.11137094e+06
3.57000000e+02	3.14379197e+06
3.58000000e+02	3.17653389e+06
3.59000000e+02	3.20959906e+06
3.60000000e+02	3.24298986e+06
3.61000000e+02	3.27670864e+06
3.62000000e+02	3.31075779e+06
3.63000000e+02	3.34513967e+06
3.64000000e+02	3.37985662e+06
3.65000000e+02	3.41491103e+06
3.66000000e+02	3.45030523e+06
3.67000000e+02	3.48604159e+06
3.68000000e+02	3.52212245e+06
3.69000000e+02	3.55855015e+06
3.70000000e+02	3.59532703e+06
3.71000000e+02	3.63245543e+06
3.72000000e+02	3.66993768e+06
3.73000000e+02	3.70777609e+06
3.74000000e+02	3.74597299e+06
3.75000000e+02	3.78453068e+06
3.76000000e+02	3.82345146e+06
3.77000000e+02	3.86273764e+06
3.78000000e+02	3.90239149e+06
3.79000000e+02	3.94241530e+06
3.80000000e+02	3.98281133e+06
3.81000000e+02	4.02358184e+06
3.82000000e+02	4.06472909e+06
3.83000000e+02	4.10625532e+06
3.84000000e+02	4.14816276e+06
3.85000000e+02	4.19045361e+06
3.86000000e+02	4.23313010e+06
3.87000000e+02	4.27619442e+06
3.88000000e+02	4.31964874e+06
3.89000000e+02	4.36349523e+06
3.90000000e+02	4.40773606e+06
3.91000000e+02	4.45237335e+06
3.92000000e+02	4.49740923e+06
3.93000000e+02	4.54284582e+06
3.94000000e+02	4.58868519e+06
3.95000000e+02	4.63492943e+06
3.96000000e+02	4.68158059e+06
3.97000000e+02	4.72864069e+06
3.98000000e+02	4.77611177e+06
3.99000000e+02	4.82399580e+06
4.00000000e+02	4.87229477e+06
4.01000000e+02	4.92101061e+06
4.02000000e+02	4.97014525e+06
4.03000000e+02	5.01970059e+06
4.04000000e+02	5.06967848e+06
4.05000000e+02	5.12008078e+06
4.06000000e+02	5.17090928e+06
4.07000000e+02	5.22216577e+06
4.08000000e+02	5.27385198e+06
4.09000000e+02	5.32596962e+06
4.10000000e+02	5.37852035e+06
4.11000000e+02	5.43150581e+06
4.12000000e+02	5.48492757e+06
4.13000000e+02	5.53878718e+06
4.14000000e+02	5.59308611e+06
4.15000000e+02	5.64782582e+06
4.16000000e+02	5.70300768e+06
4.17000000e+02	5.75863302e+06
4.18000000e+02	5.81470310e+06
4.19000000e+02	5.87121914e+06
4.20000000e+02	5.92818224e+06
4.21000000e+02	5.98559349e+06
4.22000000e+02	6.04345384e+06
4.23000000e+02	6.10176420e+06
4.24000000e+02	6.16052538e+06
4.25000000e+02	6.21973809e+06
4.26000000e+02	6.27940293e+06
4.27000000e+02	6.33952042e+06
4.28000000e+02	6.40009094e+06
4.29000000e+02	6.46111477e+06
4.30000000e+02	6.52259203e+06
4.31000000e+02	6.58452274e+06
4.32000000e+02	6.64690674e+06
4.33000000e+02	6.70974372e+06
4.34000000e+02	6.77303321e+06
4.35000000e+02	6.83677455e+06
4.36000000e+02	6.90096691e+06
4.37000000e+02	6.96560923e+06
4.38000000e+02	7.03070024e+06
4.39000000e+02	7.09623845e+06
4.40000000e+02	7.16222210e+06
4.41000000e+02	7.22864918e+06
4.42000000e+02	7.29551741e+06
4.43000000e+02	7.36282418e+06
4.44000000e+02	7.43056658e+06
4.45000000e+02	7.49874136e+06
4.46000000e+02	7.56734489e+06
4.47000000e+02	7.63637318e+06
4.48000000e+02	7.70582179e+06
4.49000000e+02	7.77568588e+06
4.50000000e+02	7.84596011e+06
4.51000000e+02	7.91663865e+06
4.52000000e+02	7.98771516e+06
4.53000000e+02	8.05918271e+06
4.54000000e+02	8.13103377e+06
4.55000000e+02	8.20326018e+06
4.56000000e+02	8.27585309e+06
4.57000000e+02	8.34880294e+06
4.58000000e+02	8.42209939e+06
4.59000000e+02	8.49573128e+06
4.60000000e+02	8.56968659e+06
4.61000000e+02	8.64395237e+06
4.62000000e+02	8.71851468e+06
4.63000000e+02	8.79335855e+06
4.64000000e+02	8.86846791e+06
4.65000000e+02	8.94382550e+06
4.66000000e+02	9.01941283e+06
4.67000000e+02	9.09521009e+06
4.68000000e+02	9.17119607e+06
4.69000000e+02	9.24734806e+06
4.70000000e+02	9.32364182e+06
4.71000000e+02	9.40005142e+06
4.72000000e+02	9.47654919e+06
4.73000000e+02	9.55310559e+06
4.74000000e+02	9.62968913e+06
4.75000000e+02	9.70626624e+06
4.76000000e+02	9.78280118e+06
4.77000000e+02	9.85925587e+06
4.78000000e+02	9.93558982e+06
4.79000000e+02	1.00117600e+07
4.80000000e+02	1.00877206e+07
4.81000000e+02	1.01634231e+07
4.82000000e+02	1.02388159e+07
4.83000000e+02	1.03138444e+07
4.84000000e+02	1.03884504e+07
4.85000000e+02	1.04625728e+07
4.86000000e+02	1.05361464e+07
4.87000000e+02	1.06091026e+07
4.88000000e+02	1.06813686e+07
4.89000000e+02	1.07528678e+07
4.90000000e+02	1.08235192e+07
4.91000000e+02	1.08932375e+07
4.92000000e+02	1.09619327e+07
4.93000000e+02	1.10295102e+07
4.94000000e+02	1.10958707e+07
4.95000000e+02	1.11609095e+07
4.96000000e+02	1.12245173e+07
4.97000000e+02	1.12865792e+07
4.98000000e+02	1.13469750e+07
4.99000000e+02	1.14055794e+07
5.00000000e+02	1.14622612e+07
5.01000000e+02	1.15168842e+07
5.02000000e+02	1.15693065e+07
5.03000000e+02	1.16193806e+07
5.04000000e+02	1.16669540e+07
5.05000000e+02	1.17118687e+07
5.06000000e+02	1.17539618e+07
5.07000000e+02	1.17930656e+07
5.08000000e+02	1.18290080e+07
5.09000000e+02	1.18616125e+07
5.10000000e+02	1.18906991e+07
5.11000000e+02	1.19160848e+07
5.12000000e+02	1.19375836e+07
5.13000000e+02	1.19550082e+07
5.14000000e+02	1.19681698e+07
5.15000000e+02	1.19768796e+07
5.16000000e+02	1.19809499e+07
5.17000000e+02	1.19801945e+07
5.18000000e+02	1.19744307e+07
5.19000000e+02	1.19634802e+07
5.20000000e+02	1.19471703e+07
5.21000000e+02	1.19253361e+07
5.22000000e+02	1.18978212e+07
5.23000000e+02	1.18644802e+07
5.24000000e+02	1.18251795e+07
5.25000000e+02	1.17797999e+07
5.26000000e+02	1.17282378e+07
5.27000000e+02	1.16704071e+07
5.28000000e+02	1.16062411e+07
5.29000000e+02	1.15356938e+07
5.30000000e+02	1.14587417e+07
5.31000000e+02	1.13753851e+07
5.32000000e+02	1.12856497e+07
5.33000000e+02	1.11895871e+07
5.34000000e+02	1.10872763e+07
5.35000000e+02	1.09788239e+07
5.36000000e+02	1.08643643e+07
5.37000000e+02	1.07440603e+07
5.38000000e+02	1.06181022e+07
5.39000000e+02	1.04867075e+07
5.40000000e+02	1.03501199e+07
5.41000000e+02	1.02086079e+07
5.42000000e+02	1.00624632e+07
5.43000000e+02	9.91199863e+06
5.44000000e+02	9.75754624e+06
5.45000000e+02	9.59945455e+06
5.46000000e+02	9.43808595e+06
5.47000000e+02	9.27381386e+06
5.48000000e+02	9.10701972e+06
5.49000000e+02	8.93808998e+06
5.50000000e+02	8.76741299e+06
5.51000000e+02	8.59537603e+06
5.52000000e+02	8.42236232e+06
5.53000000e+02	8.24874825e+06
5.54000000e+02	8.07490069e+06
5.55000000e+02	7.90117463e+06
5.56000000e+02	7.72791092e+06
5.57000000e+02	7.55543440e+06
5.58000000e+02	7.38405223e+06
5.59000000e+02	7.21405254e+06
5.60000000e+02	7.04570339e+06
5.61000000e+02	6.87925197e+06
5.62000000e+02	6.71492410e+06
5.63000000e+02	6.55292404e+06
5.64000000e+02	6.39343450e+06
5.65000000e+02	6.23661686e+06
5.66000000e+02	6.08261166e+06
5.67000000e+02	5.93153917e+06
5.68000000e+02	5.78350023e+06
5.69000000e+02	5.63857710e+06
5.70000000e+02	5.49683448e+06
5.71000000e+02	5.35832058e+06
5.72000000e+02	5.22306823e+06
5.73000000e+02	5.09109608e+06
5.74000000e+02	4.96240973e+06
5.75000000e+02	4.83700290e+06
5.76000000e+02	4.71485860e+06
5.77000000e+02	4.59595023e+06
5.78000000e+02	4.48024265e+06
5.79000000e+02	4.36769326e+06
5.80000000e+02	4.25825288e+06
5.81000000e+02	4.15186679e+06
5.82000000e+02	4.04847547e+06
5.83000000e+02	3.94801550e+06
5.84000000e+02	3.85042017e+06
5.85000000e+02	3.75562028e+06
5.86000000e+02	3.66354465e+06
5.87000000e+02	3.57412071e+06
5.88000000e+02	3.48727497e+06
5.89000000e+02	3.40293349e+06
5.90000000e+02	3.32102223e+06
5.91000000e+02	3.24146741e+06
5.92000000e+02	3.16419582e+06
5.93000000e+02	3.08913504e+06
5.94000000e+02	3.01621367e+06
5.95000000e+02	2.94536154e+06
5.96000000e+02	2.87650984e+06
5.97000000e+02	2.80959124e+06
5.98000000e+02	2.74454001e+06
5.99000000e+02	2.68129210e+06
6.00000000e+02	2.61978516e+06
6.01000000e+02	2.55995865e+06
6.02000000e+02	2.50175381e+06
6.03000000e+02	2.44511368e+06
6.04000000e+02	2.38998314e+06
6.05000000e+02	2.33630886e+06
6.06000000e+02	2.28403932e+06
6.07000000e+02	2.23312474e+06
6.08000000e+02	2.18351710e+06
6.09000000e+02	2.13517007e+06
6.10000000e+02	2.08803901e+06
6.11000000e+02	2.04208088e+06
6.12000000e+02	1.99725422e+06
6.13000000e+02	1.95351913e+06
6.14000000e+02	1.91083717e+06
6.15000000e+02	1.86917137e+06
6.16000000e+02	1.82848612e+06
6.17000000e+02	1.78874718e+06
6.18000000e+02	1.74992159e+06
6.19000000e+02	1.71197766e+06
6.20000000e+02	1.67488488e+06
6.21000000e+02	1.63861391e+06
6.22000000e+02	1.60313650e+06
6.23000000e+02	1.56842550e+06
6.24000000e+02	1.53445476e+06
6.25000000e+02	1.50119912e+06
6.26000000e+02	1.46863435e+06
6.27000000e+02	1.43673714e+06
6.28000000e+02	1.40548505e+06
6.29000000e+02	1.37485644e+06
6.30000000e+02	1.34483049e+06
6.31000000e+02	1.31538713e+06
6.32000000e+02	1.28650703e+06
6.33000000e+02	1.25817153e+06
6.34000000e+02	1.23036267e+06
6.35000000e+02	1.20306309e+06
6.36000000e+02	1.17625609e+06
6.37000000e+02	1.14992551e+06
6.38000000e+02	1.12405576e+06
6.39000000e+02	1.09863180e+06
6.40000000e+02	1.07363909e+06
6.41000000e+02	1.04906358e+06
6.42000000e+02	1.02489169e+06
6.43000000e+02	1.00111028e+06
6.44000000e+02	9.77706646e+05
6.45000000e+02	9.54668495e+05
6.46000000e+02	9.31983920e+05
6.47000000e+02	9.09641391e+05
6.48000000e+02	8.87629735e+05
6.49000000e+02	8.65938120e+05
6.50000000e+02	8.44556044e+05
6.51000000e+02	8.23473314e+05
6.52000000e+02	8.02680038e+05
6.53000000e+02	7.82166607e+05
6.54000000e+02	7.61923686e+05
6.55000000e+02	7.41942199e+05
6.56000000e+02	7.22213318e+05
6.57000000e+02	7.02728450e+05
6.58000000e+02	6.83479231e+05
6.59000000e+02	6.64457509e+05
