# Profil de ElecX au temps 1.100000000000014e-11 
# simu : /Volumes/MERCURE/JOBS/Zeq1_tanh_50mic_5e20_B0_20ps/GNU/ElecX@y-c.set
# col 0 : abscisse (um)
# col 1 : ElecX (V/m)
0.00000000e+00	0.00000000e+00
1.00000000e+00	2.00868557e+03
2.00000000e+00	1.21508397e+03
3.00000000e+00	1.60812785e+03
4.00000000e+00	2.99985784e+03
5.00000000e+00	3.67366688e+03
6.00000000e+00	4.39701645e+03
7.00000000e+00	5.13195590e+03
8.00000000e+00	5.87006484e+03
9.00000000e+00	6.61060926e+03
1.00000000e+01	7.35372891e+03
1.10000000e+01	8.09968303e+03
1.20000000e+01	8.84874948e+03
1.30000000e+01	9.60120743e+03
1.40000000e+01	1.03573358e+04
1.50000000e+01	1.11174120e+04
1.60000000e+01	1.18817126e+04
1.70000000e+01	1.26505135e+04
1.80000000e+01	1.34240891e+04
1.90000000e+01	1.42027135e+04
2.00000000e+01	1.49866594e+04
2.10000000e+01	1.57761982e+04
2.20000000e+01	1.65716006e+04
2.30000000e+01	1.73731361e+04
2.40000000e+01	1.81810725e+04
2.50000000e+01	1.89956766e+04
2.60000000e+01	1.98172138e+04
2.70000000e+01	2.06459479e+04
2.80000000e+01	2.14821414e+04
2.90000000e+01	2.23260551e+04
3.00000000e+01	2.31779482e+04
3.10000000e+01	2.40380782e+04
3.20000000e+01	2.49067010e+04
3.30000000e+01	2.57840707e+04
3.40000000e+01	2.66704392e+04
3.50000000e+01	2.75660573e+04
3.60000000e+01	2.84711728e+04
3.70000000e+01	2.93860326e+04
3.80000000e+01	3.03108809e+04
3.90000000e+01	3.12459597e+04
4.00000000e+01	3.21915097e+04
4.10000000e+01	3.31477684e+04
4.20000000e+01	3.41149718e+04
4.30000000e+01	3.50933534e+04
4.40000000e+01	3.60831443e+04
4.50000000e+01	3.70845734e+04
4.60000000e+01	3.80978673e+04
4.70000000e+01	3.91232499e+04
4.80000000e+01	4.01609427e+04
4.90000000e+01	4.12111651e+04
5.00000000e+01	4.22741335e+04
5.10000000e+01	4.33500619e+04
5.20000000e+01	4.44391617e+04
5.30000000e+01	4.55416419e+04
5.40000000e+01	4.66577085e+04
5.50000000e+01	4.77875649e+04
5.60000000e+01	4.89314120e+04
5.70000000e+01	5.00894478e+04
5.80000000e+01	5.12618678e+04
5.90000000e+01	5.24488642e+04
6.00000000e+01	5.36506269e+04
6.10000000e+01	5.48673431e+04
6.20000000e+01	5.60991968e+04
6.30000000e+01	5.73463692e+04
6.40000000e+01	5.86090392e+04
6.50000000e+01	5.98873820e+04
6.60000000e+01	6.11815709e+04
6.70000000e+01	6.24917755e+04
6.80000000e+01	6.38181633e+04
6.90000000e+01	6.51608985e+04
7.00000000e+01	6.65201426e+04
7.10000000e+01	6.78960542e+04
7.20000000e+01	6.92887892e+04
7.30000000e+01	7.06985007e+04
7.40000000e+01	7.21253389e+04
7.50000000e+01	7.35694515e+04
7.60000000e+01	7.50309830e+04
7.70000000e+01	7.65100756e+04
7.80000000e+01	7.80068688e+04
7.90000000e+01	7.95214989e+04
8.00000000e+01	8.10541004e+04
8.10000000e+01	8.26048047e+04
8.20000000e+01	8.41737407e+04
8.30000000e+01	8.57610348e+04
8.40000000e+01	8.73668112e+04
8.50000000e+01	8.89911915e+04
8.60000000e+01	9.06342947e+04
8.70000000e+01	9.22962383e+04
8.80000000e+01	9.39771365e+04
8.90000000e+01	9.56771023e+04
9.00000000e+01	9.73962461e+04
9.10000000e+01	9.91346763e+04
9.20000000e+01	1.00892500e+05
9.30000000e+01	1.02669821e+05
9.40000000e+01	1.04466743e+05
9.50000000e+01	1.06283367e+05
9.60000000e+01	1.08119792e+05
9.70000000e+01	1.09976117e+05
9.80000000e+01	1.11852439e+05
9.90000000e+01	1.13748852e+05
1.00000000e+02	1.15665452e+05
1.01000000e+02	1.17602331e+05
1.02000000e+02	1.19559581e+05
1.03000000e+02	1.21537293e+05
1.04000000e+02	1.23535559e+05
1.05000000e+02	1.25554468e+05
1.06000000e+02	1.27594109e+05
1.07000000e+02	1.29654572e+05
1.08000000e+02	1.31735945e+05
1.09000000e+02	1.33838317e+05
1.10000000e+02	1.35961776e+05
1.11000000e+02	1.38106412e+05
1.12000000e+02	1.40272313e+05
1.13000000e+02	1.42459570e+05
1.14000000e+02	1.44668273e+05
1.15000000e+02	1.46898512e+05
1.16000000e+02	1.49150380e+05
1.17000000e+02	1.51423970e+05
1.18000000e+02	1.53719377e+05
1.19000000e+02	1.56036695e+05
1.20000000e+02	1.58376023e+05
1.21000000e+02	1.60737459e+05
1.22000000e+02	1.63121105e+05
1.23000000e+02	1.65527065e+05
1.24000000e+02	1.67955442e+05
1.25000000e+02	1.70406347e+05
1.26000000e+02	1.72879889e+05
1.27000000e+02	1.75376182e+05
1.28000000e+02	1.77895342e+05
1.29000000e+02	1.80437490e+05
1.30000000e+02	1.83002749e+05
1.31000000e+02	1.85591246e+05
1.32000000e+02	1.88203112e+05
1.33000000e+02	1.90838481e+05
1.34000000e+02	1.93497494e+05
1.35000000e+02	1.96180293e+05
1.36000000e+02	1.98887027e+05
1.37000000e+02	2.01617850e+05
1.38000000e+02	2.04372919e+05
1.39000000e+02	2.07152399e+05
1.40000000e+02	2.09956458e+05
1.41000000e+02	2.12785272e+05
1.42000000e+02	2.15639021e+05
1.43000000e+02	2.18517894e+05
1.44000000e+02	2.21422082e+05
1.45000000e+02	2.24351788e+05
1.46000000e+02	2.27307217e+05
1.47000000e+02	2.30288584e+05
1.48000000e+02	2.33296111e+05
1.49000000e+02	2.36330027e+05
1.50000000e+02	2.39390569e+05
1.51000000e+02	2.42477982e+05
1.52000000e+02	2.45592519e+05
1.53000000e+02	2.48734441e+05
1.54000000e+02	2.51904020e+05
1.55000000e+02	2.55101535e+05
1.56000000e+02	2.58327273e+05
1.57000000e+02	2.61581535e+05
1.58000000e+02	2.64864626e+05
1.59000000e+02	2.68176864e+05
1.60000000e+02	2.71518577e+05
1.61000000e+02	2.74890104e+05
1.62000000e+02	2.78291792e+05
1.63000000e+02	2.81724001e+05
1.64000000e+02	2.85187102e+05
1.65000000e+02	2.88681475e+05
1.66000000e+02	2.92207514e+05
1.67000000e+02	2.95765625e+05
1.68000000e+02	2.99356223e+05
1.69000000e+02	3.02979738e+05
1.70000000e+02	3.06636611e+05
1.71000000e+02	3.10327296e+05
1.72000000e+02	3.14052259e+05
1.73000000e+02	3.17811982e+05
1.74000000e+02	3.21606956e+05
1.75000000e+02	3.25437688e+05
1.76000000e+02	3.29304699e+05
1.77000000e+02	3.33208522e+05
1.78000000e+02	3.37149707e+05
1.79000000e+02	3.41128815e+05
1.80000000e+02	3.45146424e+05
1.81000000e+02	3.49203126e+05
1.82000000e+02	3.53299527e+05
1.83000000e+02	3.57436250e+05
1.84000000e+02	3.61613932e+05
1.85000000e+02	3.65833226e+05
1.86000000e+02	3.70094800e+05
1.87000000e+02	3.74399339e+05
1.88000000e+02	3.78747543e+05
1.89000000e+02	3.83140130e+05
1.90000000e+02	3.87577832e+05
1.91000000e+02	3.92061401e+05
1.92000000e+02	3.96591602e+05
1.93000000e+02	4.01169220e+05
1.94000000e+02	4.05795056e+05
1.95000000e+02	4.10469929e+05
1.96000000e+02	4.15194675e+05
1.97000000e+02	4.19970147e+05
1.98000000e+02	4.24797218e+05
1.99000000e+02	4.29676778e+05
2.00000000e+02	4.34609734e+05
2.01000000e+02	4.39597014e+05
2.02000000e+02	4.44639561e+05
2.03000000e+02	4.49738342e+05
2.04000000e+02	4.54894337e+05
2.05000000e+02	4.60108550e+05
2.06000000e+02	4.65382002e+05
2.07000000e+02	4.70715732e+05
2.08000000e+02	4.76110803e+05
2.09000000e+02	4.81568292e+05
2.10000000e+02	4.87089301e+05
2.11000000e+02	4.92674950e+05
2.12000000e+02	4.98326379e+05
2.13000000e+02	5.04044748e+05
2.14000000e+02	5.09831239e+05
2.15000000e+02	5.15687054e+05
2.16000000e+02	5.21613416e+05
2.17000000e+02	5.27611570e+05
2.18000000e+02	5.33682781e+05
2.19000000e+02	5.39828335e+05
2.20000000e+02	5.46049542e+05
2.21000000e+02	5.52347731e+05
2.22000000e+02	5.58724256e+05
2.23000000e+02	5.65180491e+05
2.24000000e+02	5.71717834e+05
2.25000000e+02	5.78337703e+05
2.26000000e+02	5.85041543e+05
2.27000000e+02	5.91830817e+05
2.28000000e+02	5.98707015e+05
2.29000000e+02	6.05671650e+05
2.30000000e+02	6.12726258e+05
2.31000000e+02	6.19872397e+05
2.32000000e+02	6.27111653e+05
2.33000000e+02	6.34445633e+05
2.34000000e+02	6.41875971e+05
2.35000000e+02	6.49404325e+05
2.36000000e+02	6.57032377e+05
2.37000000e+02	6.64761835e+05
2.38000000e+02	6.72594434e+05
2.39000000e+02	6.80531933e+05
2.40000000e+02	6.88576119e+05
2.41000000e+02	6.96728803e+05
2.42000000e+02	7.04991825e+05
2.43000000e+02	7.13367051e+05
2.44000000e+02	7.21856375e+05
2.45000000e+02	7.30461718e+05
2.46000000e+02	7.39185029e+05
2.47000000e+02	7.48028286e+05
2.48000000e+02	7.56993494e+05
2.49000000e+02	7.66082689e+05
2.50000000e+02	7.75297935e+05
2.51000000e+02	7.84641325e+05
2.52000000e+02	7.94114985e+05
2.53000000e+02	8.03721068e+05
2.54000000e+02	8.13461759e+05
2.55000000e+02	8.23339274e+05
2.56000000e+02	8.33355862e+05
2.57000000e+02	8.43513800e+05
2.58000000e+02	8.53815402e+05
2.59000000e+02	8.64263011e+05
2.60000000e+02	8.74859005e+05
2.61000000e+02	8.85605794e+05
2.62000000e+02	8.96505824e+05
2.63000000e+02	9.07561572e+05
2.64000000e+02	9.18775552e+05
2.65000000e+02	9.30150314e+05
2.66000000e+02	9.41688441e+05
2.67000000e+02	9.53392552e+05
2.68000000e+02	9.65265306e+05
2.69000000e+02	9.77309393e+05
2.70000000e+02	9.89527546e+05
2.71000000e+02	1.00192253e+06
2.72000000e+02	1.01449716e+06
2.73000000e+02	1.02725426e+06
2.74000000e+02	1.04019674e+06
2.75000000e+02	1.05332750e+06
2.76000000e+02	1.06664952e+06
2.77000000e+02	1.08016579e+06
2.78000000e+02	1.09387936e+06
2.79000000e+02	1.10779331e+06
2.80000000e+02	1.12191076e+06
2.81000000e+02	1.13623490e+06
2.82000000e+02	1.15076892e+06
2.83000000e+02	1.16551608e+06
2.84000000e+02	1.18047967e+06
2.85000000e+02	1.19566303e+06
2.86000000e+02	1.21106955e+06
2.87000000e+02	1.22670265e+06
2.88000000e+02	1.24256580e+06
2.89000000e+02	1.25866252e+06
2.90000000e+02	1.27499638e+06
2.91000000e+02	1.29157097e+06
2.92000000e+02	1.30838995e+06
2.93000000e+02	1.32545702e+06
2.94000000e+02	1.34277592e+06
2.95000000e+02	1.36035046e+06
2.96000000e+02	1.37818445e+06
2.97000000e+02	1.39628180e+06
2.98000000e+02	1.41464643e+06
2.99000000e+02	1.43328232e+06
3.00000000e+02	1.45219351e+06
3.01000000e+02	1.47138407e+06
3.02000000e+02	1.49085812e+06
3.03000000e+02	1.51061984e+06
3.04000000e+02	1.53067345e+06
3.05000000e+02	1.55102321e+06
3.06000000e+02	1.57167344e+06
3.07000000e+02	1.59262852e+06
3.08000000e+02	1.61389284e+06
3.09000000e+02	1.63547089e+06
3.10000000e+02	1.65736715e+06
3.11000000e+02	1.67958621e+06
3.12000000e+02	1.70213265e+06
3.13000000e+02	1.72501113e+06
3.14000000e+02	1.74822636e+06
3.15000000e+02	1.77178309e+06
3.16000000e+02	1.79568611e+06
3.17000000e+02	1.81994026e+06
3.18000000e+02	1.84455043e+06
3.19000000e+02	1.86952156e+06
3.20000000e+02	1.89485863e+06
3.21000000e+02	1.92056667e+06
3.22000000e+02	1.94665074e+06
3.23000000e+02	1.97311595e+06
3.24000000e+02	1.99996748e+06
3.25000000e+02	2.02721050e+06
3.26000000e+02	2.05485028e+06
3.27000000e+02	2.08289209e+06
3.28000000e+02	2.11134125e+06
3.29000000e+02	2.14020314e+06
3.30000000e+02	2.16948314e+06
3.31000000e+02	2.19918670e+06
3.32000000e+02	2.22931930e+06
3.33000000e+02	2.25988645e+06
3.34000000e+02	2.29089370e+06
3.35000000e+02	2.32234662e+06
3.36000000e+02	2.35425082e+06
3.37000000e+02	2.38661195e+06
3.38000000e+02	2.41943569e+06
3.39000000e+02	2.45272772e+06
3.40000000e+02	2.48649378e+06
3.41000000e+02	2.52073961e+06
3.42000000e+02	2.55547099e+06
3.43000000e+02	2.59069371e+06
3.44000000e+02	2.62641359e+06
3.45000000e+02	2.66263646e+06
3.46000000e+02	2.69936817e+06
3.47000000e+02	2.73661458e+06
3.48000000e+02	2.77438156e+06
3.49000000e+02	2.81267499e+06
3.50000000e+02	2.85150078e+06
3.51000000e+02	2.89086480e+06
3.52000000e+02	2.93077297e+06
3.53000000e+02	2.97123117e+06
3.54000000e+02	3.01224531e+06
3.55000000e+02	3.05382128e+06
3.56000000e+02	3.09596496e+06
3.57000000e+02	3.13868223e+06
3.58000000e+02	3.18197894e+06
3.59000000e+02	3.22586095e+06
3.60000000e+02	3.27033407e+06
3.61000000e+02	3.31540412e+06
3.62000000e+02	3.36107687e+06
3.63000000e+02	3.40735807e+06
3.64000000e+02	3.45425345e+06
3.65000000e+02	3.50176868e+06
3.66000000e+02	3.54990942e+06
3.67000000e+02	3.59868126e+06
3.68000000e+02	3.64808977e+06
3.69000000e+02	3.69814045e+06
3.70000000e+02	3.74883876e+06
3.71000000e+02	3.80019009e+06
3.72000000e+02	3.85219979e+06
3.73000000e+02	3.90487314e+06
3.74000000e+02	3.95821532e+06
3.75000000e+02	4.01223148e+06
3.76000000e+02	4.06692666e+06
3.77000000e+02	4.12230585e+06
3.78000000e+02	4.17837392e+06
3.79000000e+02	4.23513567e+06
3.80000000e+02	4.29259581e+06
3.81000000e+02	4.35075892e+06
3.82000000e+02	4.40962952e+06
3.83000000e+02	4.46921197e+06
3.84000000e+02	4.52951057e+06
3.85000000e+02	4.59052945e+06
3.86000000e+02	4.65227265e+06
3.87000000e+02	4.71474407e+06
3.88000000e+02	4.77794748e+06
3.89000000e+02	4.84188650e+06
3.90000000e+02	4.90656461e+06
3.91000000e+02	4.97198514e+06
3.92000000e+02	5.03815127e+06
3.93000000e+02	5.10506600e+06
3.94000000e+02	5.17273218e+06
3.95000000e+02	5.24115247e+06
3.96000000e+02	5.31032938e+06
3.97000000e+02	5.38026519e+06
3.98000000e+02	5.45096203e+06
3.99000000e+02	5.52242179e+06
4.00000000e+02	5.59464620e+06
4.01000000e+02	5.66763673e+06
4.02000000e+02	5.74139466e+06
4.03000000e+02	5.81592104e+06
4.04000000e+02	5.89121668e+06
4.05000000e+02	5.96728214e+06
4.06000000e+02	6.04411774e+06
4.07000000e+02	6.12172354e+06
4.08000000e+02	6.20009932e+06
4.09000000e+02	6.27924460e+06
4.10000000e+02	6.35915861e+06
4.11000000e+02	6.43984027e+06
4.12000000e+02	6.52128819e+06
4.13000000e+02	6.60350070e+06
4.14000000e+02	6.68647575e+06
4.15000000e+02	6.77021099e+06
4.16000000e+02	6.85470369e+06
4.17000000e+02	6.93995075e+06
4.18000000e+02	7.02594872e+06
4.19000000e+02	7.11269372e+06
4.20000000e+02	7.20018146e+06
4.21000000e+02	7.28840725e+06
4.22000000e+02	7.37736591e+06
4.23000000e+02	7.46705183e+06
4.24000000e+02	7.55745888e+06
4.25000000e+02	7.64858045e+06
4.26000000e+02	7.74040939e+06
4.27000000e+02	7.83293799e+06
4.28000000e+02	7.92615794e+06
4.29000000e+02	8.02006036e+06
4.30000000e+02	8.11463570e+06
4.31000000e+02	8.20987375e+06
4.32000000e+02	8.30576358e+06
4.33000000e+02	8.40229353e+06
4.34000000e+02	8.49945116e+06
4.35000000e+02	8.59722322e+06
4.36000000e+02	8.69559555e+06
4.37000000e+02	8.79455314e+06
4.38000000e+02	8.89407996e+06
4.39000000e+02	8.99415900e+06
4.40000000e+02	9.09477217e+06
4.41000000e+02	9.19590023e+06
4.42000000e+02	9.29752278e+06
4.43000000e+02	9.39961811e+06
4.44000000e+02	9.50216320e+06
4.45000000e+02	9.60513361e+06
4.46000000e+02	9.70850340e+06
4.47000000e+02	9.81224505e+06
4.48000000e+02	9.91632937e+06
4.49000000e+02	1.00207254e+07
4.50000000e+02	1.01254003e+07
4.51000000e+02	1.02303192e+07
4.52000000e+02	1.03354452e+07
4.53000000e+02	1.04407391e+07
4.54000000e+02	1.05461596e+07
4.55000000e+02	1.06516626e+07
4.56000000e+02	1.07572016e+07
4.57000000e+02	1.08627272e+07
4.58000000e+02	1.09681873e+07
4.59000000e+02	1.10735264e+07
4.60000000e+02	1.11786862e+07
4.61000000e+02	1.12836045e+07
4.62000000e+02	1.13882160e+07
4.63000000e+02	1.14924513e+07
4.64000000e+02	1.15962373e+07
4.65000000e+02	1.16994965e+07
4.66000000e+02	1.18021473e+07
4.67000000e+02	1.19041034e+07
4.68000000e+02	1.20052739e+07
4.69000000e+02	1.21055628e+07
4.70000000e+02	1.22048692e+07
4.71000000e+02	1.23030867e+07
4.72000000e+02	1.24001033e+07
4.73000000e+02	1.24958015e+07
4.74000000e+02	1.25900576e+07
4.75000000e+02	1.26827421e+07
4.76000000e+02	1.27737191e+07
4.77000000e+02	1.28628463e+07
4.78000000e+02	1.29499750e+07
4.79000000e+02	1.30349498e+07
4.80000000e+02	1.31176087e+07
4.81000000e+02	1.31977830e+07
4.82000000e+02	1.32752972e+07
4.83000000e+02	1.33499691e+07
4.84000000e+02	1.34216102e+07
4.85000000e+02	1.34900253e+07
4.86000000e+02	1.35550131e+07
4.87000000e+02	1.36163666e+07
4.88000000e+02	1.36738730e+07
4.89000000e+02	1.37273146e+07
4.90000000e+02	1.37764690e+07
4.91000000e+02	1.38211100e+07
4.92000000e+02	1.38610084e+07
4.93000000e+02	1.38959324e+07
4.94000000e+02	1.39256491e+07
4.95000000e+02	1.39499254e+07
4.96000000e+02	1.39685291e+07
4.97000000e+02	1.39812305e+07
4.98000000e+02	1.39878036e+07
4.99000000e+02	1.39880280e+07
5.00000000e+02	1.39816904e+07
5.01000000e+02	1.39685863e+07
5.02000000e+02	1.39485224e+07
5.03000000e+02	1.39213182e+07
5.04000000e+02	1.38868080e+07
5.05000000e+02	1.38448436e+07
5.06000000e+02	1.37952957e+07
5.07000000e+02	1.37380565e+07
5.08000000e+02	1.36730417e+07
5.09000000e+02	1.36001924e+07
5.10000000e+02	1.35194772e+07
5.11000000e+02	1.34308935e+07
5.12000000e+02	1.33344695e+07
5.13000000e+02	1.32302654e+07
5.14000000e+02	1.31183742e+07
5.15000000e+02	1.29989227e+07
5.16000000e+02	1.28720716e+07
5.17000000e+02	1.27380158e+07
5.18000000e+02	1.25969837e+07
5.19000000e+02	1.24492367e+07
5.20000000e+02	1.22950678e+07
5.21000000e+02	1.21348002e+07
5.22000000e+02	1.19687850e+07
5.23000000e+02	1.17973990e+07
5.24000000e+02	1.16210420e+07
5.25000000e+02	1.14401339e+07
5.26000000e+02	1.12551112e+07
5.27000000e+02	1.10664237e+07
5.28000000e+02	1.08745306e+07
5.29000000e+02	1.06798976e+07
5.30000000e+02	1.04829922e+07
5.31000000e+02	1.02842807e+07
5.32000000e+02	1.00842247e+07
5.33000000e+02	9.88327723e+06
5.34000000e+02	9.68188014e+06
5.35000000e+02	9.48046086e+06
5.36000000e+02	9.27942989e+06
5.37000000e+02	9.07917855e+06
5.38000000e+02	8.88007698e+06
5.39000000e+02	8.68247255e+06
5.40000000e+02	8.48668864e+06
5.41000000e+02	8.29302372e+06
5.42000000e+02	8.10175078e+06
5.43000000e+02	7.91311709e+06
5.44000000e+02	7.72734425e+06
5.45000000e+02	7.54462851e+06
5.46000000e+02	7.36514131e+06
5.47000000e+02	7.18903004e+06
5.48000000e+02	7.01641897e+06
5.49000000e+02	6.84741036e+06
5.50000000e+02	6.68208565e+06
5.51000000e+02	6.52050671e+06
5.52000000e+02	6.36271721e+06
5.53000000e+02	6.20874400e+06
5.54000000e+02	6.05859846e+06
5.55000000e+02	5.91227794e+06
5.56000000e+02	5.76976705e+06
5.57000000e+02	5.63103903e+06
5.58000000e+02	5.49605700e+06
5.59000000e+02	5.36477513e+06
5.60000000e+02	5.23713987e+06
5.61000000e+02	5.11309095e+06
5.62000000e+02	4.99256241e+06
5.63000000e+02	4.87548353e+06
5.64000000e+02	4.76177966e+06
5.65000000e+02	4.65137302e+06
5.66000000e+02	4.54418342e+06
5.67000000e+02	4.44012883e+06
5.68000000e+02	4.33912605e+06
5.69000000e+02	4.24109110e+06
5.70000000e+02	4.14593979e+06
5.71000000e+02	4.05358803e+06
5.72000000e+02	3.96395217e+06
5.73000000e+02	3.87694938e+06
5.74000000e+02	3.79249779e+06
5.75000000e+02	3.71051680e+06
5.76000000e+02	3.63092720e+06
5.77000000e+02	3.55365134e+06
5.78000000e+02	3.47861324e+06
5.79000000e+02	3.40573871e+06
5.80000000e+02	3.33495536e+06
5.81000000e+02	3.26619273e+06
5.82000000e+02	3.19938227e+06
5.83000000e+02	3.13445736e+06
5.84000000e+02	3.07135335e+06
5.85000000e+02	3.01000754e+06
5.86000000e+02	2.95035913e+06
5.87000000e+02	2.89234924e+06
5.88000000e+02	2.83592090e+06
5.89000000e+02	2.78101894e+06
5.90000000e+02	2.72759002e+06
5.91000000e+02	2.67558254e+06
5.92000000e+02	2.62494665e+06
5.93000000e+02	2.57563412e+06
5.94000000e+02	2.52759839e+06
5.95000000e+02	2.48079442e+06
5.96000000e+02	2.43517872e+06
5.97000000e+02	2.39070925e+06
5.98000000e+02	2.34734539e+06
5.99000000e+02	2.30504788e+06
6.00000000e+02	2.26377877e+06
6.01000000e+02	2.22350139e+06
6.02000000e+02	2.18418027e+06
6.03000000e+02	2.14578113e+06
6.04000000e+02	2.10827080e+06
6.05000000e+02	2.07161721e+06
6.06000000e+02	2.03578931e+06
6.07000000e+02	2.00075706e+06
6.08000000e+02	1.96649137e+06
6.09000000e+02	1.93296409e+06
6.10000000e+02	1.90014794e+06
6.11000000e+02	1.86801649e+06
6.12000000e+02	1.83654413e+06
6.13000000e+02	1.80570604e+06
6.14000000e+02	1.77547816e+06
6.15000000e+02	1.74583713e+06
6.16000000e+02	1.71676032e+06
6.17000000e+02	1.68822576e+06
6.18000000e+02	1.66021212e+06
6.19000000e+02	1.63269873e+06
6.20000000e+02	1.60566548e+06
6.21000000e+02	1.57909288e+06
6.22000000e+02	1.55296198e+06
6.23000000e+02	1.52725440e+06
6.24000000e+02	1.50195228e+06
6.25000000e+02	1.47703826e+06
6.26000000e+02	1.45249551e+06
6.27000000e+02	1.42830767e+06
6.28000000e+02	1.40445886e+06
6.29000000e+02	1.38093367e+06
6.30000000e+02	1.35771715e+06
6.31000000e+02	1.33479477e+06
6.32000000e+02	1.31215246e+06
6.33000000e+02	1.28977661e+06
6.34000000e+02	1.26765402e+06
6.35000000e+02	1.24577192e+06
6.36000000e+02	1.22411789e+06
6.37000000e+02	1.20267992e+06
6.38000000e+02	1.18144632e+06
6.39000000e+02	1.16040530e+06
6.40000000e+02	1.13954516e+06
6.41000000e+02	1.11885753e+06
6.42000000e+02	1.09833307e+06
6.43000000e+02	1.07795905e+06
6.44000000e+02	1.05772983e+06
6.45000000e+02	1.03763385e+06
6.46000000e+02	1.01766340e+06
6.47000000e+02	9.97810997e+05
6.48000000e+02	9.78066709e+05
6.49000000e+02	9.58425224e+05
6.50000000e+02	9.38879137e+05
6.51000000e+02	9.19419627e+05
6.52000000e+02	9.00042834e+05
6.53000000e+02	8.80742004e+05
6.54000000e+02	8.61509432e+05
6.55000000e+02	8.42342285e+05
6.56000000e+02	8.23234698e+05
6.57000000e+02	8.04179841e+05
6.58000000e+02	7.85175964e+05
6.59000000e+02	7.66217955e+05
