# Profil de ElecX au temps 1.700999999999984e-11 
# simu : /Volumes/MERCURE/JOBS/Zeq1_tanh_50mic_5e20_B0_20ps/GNU/ElecX@y-c.set
# col 0 : abscisse (um)
# col 1 : ElecX (V/m)
0.00000000e+00	0.00000000e+00
1.00000000e+00	3.80961980e+03
2.00000000e+00	3.30677996e+03
3.00000000e+00	4.62601063e+03
4.00000000e+00	7.48895408e+03
5.00000000e+00	9.23949862e+03
6.00000000e+00	1.10663588e+04
7.00000000e+00	1.29093831e+04
8.00000000e+00	1.47550581e+04
9.00000000e+00	1.66019194e+04
1.00000000e+01	1.84498658e+04
1.10000000e+01	2.02989851e+04
1.20000000e+01	2.21493618e+04
1.30000000e+01	2.40011611e+04
1.40000000e+01	2.58544126e+04
1.50000000e+01	2.77093528e+04
1.60000000e+01	2.95660170e+04
1.70000000e+01	3.14245433e+04
1.80000000e+01	3.32850312e+04
1.90000000e+01	3.51476236e+04
2.00000000e+01	3.70124389e+04
2.10000000e+01	3.88796376e+04
2.20000000e+01	4.07491587e+04
2.30000000e+01	4.26213440e+04
2.40000000e+01	4.44962294e+04
2.50000000e+01	4.63739313e+04
2.60000000e+01	4.82545431e+04
2.70000000e+01	5.01382695e+04
2.80000000e+01	5.20250310e+04
2.90000000e+01	5.39152885e+04
3.00000000e+01	5.58088841e+04
3.10000000e+01	5.77060737e+04
3.20000000e+01	5.96069227e+04
3.30000000e+01	6.15115390e+04
3.40000000e+01	6.34201741e+04
3.50000000e+01	6.53328809e+04
3.60000000e+01	6.72497421e+04
3.70000000e+01	6.91708535e+04
3.80000000e+01	7.10965997e+04
3.90000000e+01	7.30268704e+04
4.00000000e+01	7.49617195e+04
4.10000000e+01	7.69016094e+04
4.20000000e+01	7.88464812e+04
4.30000000e+01	8.07963372e+04
4.40000000e+01	8.27515334e+04
4.50000000e+01	8.47122808e+04
4.60000000e+01	8.66782850e+04
4.70000000e+01	8.86501379e+04
4.80000000e+01	9.06278986e+04
4.90000000e+01	9.26113713e+04
5.00000000e+01	9.46012264e+04
5.10000000e+01	9.65970985e+04
5.20000000e+01	9.85995557e+04
5.30000000e+01	1.00608408e+05
5.40000000e+01	1.02624078e+05
5.50000000e+01	1.04646508e+05
5.60000000e+01	1.06675946e+05
5.70000000e+01	1.08712583e+05
5.80000000e+01	1.10756420e+05
5.90000000e+01	1.12807811e+05
6.00000000e+01	1.14866762e+05
6.10000000e+01	1.16933438e+05
6.20000000e+01	1.19008235e+05
6.30000000e+01	1.21090756e+05
6.40000000e+01	1.23181952e+05
6.50000000e+01	1.25281213e+05
6.60000000e+01	1.27389215e+05
6.70000000e+01	1.29506063e+05
6.80000000e+01	1.31631549e+05
6.90000000e+01	1.33766339e+05
7.00000000e+01	1.35910305e+05
7.10000000e+01	1.38063746e+05
7.20000000e+01	1.40226746e+05
7.30000000e+01	1.42399458e+05
7.40000000e+01	1.44582311e+05
7.50000000e+01	1.46775222e+05
7.60000000e+01	1.48978360e+05
7.70000000e+01	1.51192098e+05
7.80000000e+01	1.53416539e+05
7.90000000e+01	1.55651824e+05
8.00000000e+01	1.57898218e+05
8.10000000e+01	1.60155849e+05
8.20000000e+01	1.62424898e+05
8.30000000e+01	1.64705702e+05
8.40000000e+01	1.66998236e+05
8.50000000e+01	1.69302920e+05
8.60000000e+01	1.71619831e+05
8.70000000e+01	1.73949140e+05
8.80000000e+01	1.76291233e+05
8.90000000e+01	1.78646074e+05
9.00000000e+01	1.81014088e+05
9.10000000e+01	1.83395393e+05
9.20000000e+01	1.85790171e+05
9.30000000e+01	1.88198707e+05
9.40000000e+01	1.90621191e+05
9.50000000e+01	1.93057881e+05
9.60000000e+01	1.95509016e+05
9.70000000e+01	1.97974586e+05
9.80000000e+01	2.00455245e+05
9.90000000e+01	2.02950988e+05
1.00000000e+02	2.05461843e+05
1.01000000e+02	2.07988517e+05
1.02000000e+02	2.10530920e+05
1.03000000e+02	2.13089324e+05
1.04000000e+02	2.15664093e+05
1.05000000e+02	2.18255473e+05
1.06000000e+02	2.20863514e+05
1.07000000e+02	2.23488786e+05
1.08000000e+02	2.26131240e+05
1.09000000e+02	2.28791378e+05
1.10000000e+02	2.31469370e+05
1.11000000e+02	2.34165400e+05
1.12000000e+02	2.36879876e+05
1.13000000e+02	2.39613049e+05
1.14000000e+02	2.42365140e+05
1.15000000e+02	2.45136397e+05
1.16000000e+02	2.47927254e+05
1.17000000e+02	2.50737881e+05
1.18000000e+02	2.53568584e+05
1.19000000e+02	2.56419705e+05
1.20000000e+02	2.59291441e+05
1.21000000e+02	2.62184239e+05
1.22000000e+02	2.65098310e+05
1.23000000e+02	2.68033966e+05
1.24000000e+02	2.70991535e+05
1.25000000e+02	2.73971400e+05
1.26000000e+02	2.76973738e+05
1.27000000e+02	2.79998998e+05
1.28000000e+02	2.83047504e+05
1.29000000e+02	2.86119474e+05
1.30000000e+02	2.89215386e+05
1.31000000e+02	2.92335492e+05
1.32000000e+02	2.95480325e+05
1.33000000e+02	2.98649611e+05
1.34000000e+02	3.01844853e+05
1.35000000e+02	3.05065069e+05
1.36000000e+02	3.08311690e+05
1.37000000e+02	3.11584568e+05
1.38000000e+02	3.14884120e+05
1.39000000e+02	3.18210819e+05
1.40000000e+02	3.21564961e+05
1.41000000e+02	3.24947034e+05
1.42000000e+02	3.28357309e+05
1.43000000e+02	3.31796465e+05
1.44000000e+02	3.35264257e+05
1.45000000e+02	3.38761900e+05
1.46000000e+02	3.42289234e+05
1.47000000e+02	3.45847006e+05
1.48000000e+02	3.49435177e+05
1.49000000e+02	3.53054960e+05
1.50000000e+02	3.56705963e+05
1.51000000e+02	3.60388987e+05
1.52000000e+02	3.64104629e+05
1.53000000e+02	3.67853074e+05
1.54000000e+02	3.71634951e+05
1.55000000e+02	3.75450490e+05
1.56000000e+02	3.79300426e+05
1.57000000e+02	3.83185068e+05
1.58000000e+02	3.87104931e+05
1.59000000e+02	3.91060509e+05
1.60000000e+02	3.95052237e+05
1.61000000e+02	3.99080702e+05
1.62000000e+02	4.03146418e+05
1.63000000e+02	4.07249742e+05
1.64000000e+02	4.11391220e+05
1.65000000e+02	4.15571424e+05
1.66000000e+02	4.19791102e+05
1.67000000e+02	4.24050512e+05
1.68000000e+02	4.28349854e+05
1.69000000e+02	4.32690557e+05
1.70000000e+02	4.37072637e+05
1.71000000e+02	4.41496266e+05
1.72000000e+02	4.45963047e+05
1.73000000e+02	4.50472530e+05
1.74000000e+02	4.55025852e+05
1.75000000e+02	4.59623678e+05
1.76000000e+02	4.64265886e+05
1.77000000e+02	4.68954327e+05
1.78000000e+02	4.73688069e+05
1.79000000e+02	4.78469377e+05
1.80000000e+02	4.83297148e+05
1.81000000e+02	4.88173889e+05
1.82000000e+02	4.93098270e+05
1.83000000e+02	4.98072833e+05
1.84000000e+02	5.03096622e+05
1.85000000e+02	5.08171510e+05
1.86000000e+02	5.13297484e+05
1.87000000e+02	5.18475255e+05
1.88000000e+02	5.23706239e+05
1.89000000e+02	5.28989804e+05
1.90000000e+02	5.34328053e+05
1.91000000e+02	5.39721006e+05
1.92000000e+02	5.45169010e+05
1.93000000e+02	5.50673865e+05
1.94000000e+02	5.56235382e+05
1.95000000e+02	5.61854640e+05
1.96000000e+02	5.67532511e+05
1.97000000e+02	5.73269709e+05
1.98000000e+02	5.79066714e+05
1.99000000e+02	5.84924838e+05
2.00000000e+02	5.90844669e+05
2.01000000e+02	5.96826587e+05
2.02000000e+02	6.02872132e+05
2.03000000e+02	6.08981757e+05
2.04000000e+02	6.15156324e+05
2.05000000e+02	6.21396529e+05
2.06000000e+02	6.27703617e+05
2.07000000e+02	6.34078227e+05
2.08000000e+02	6.40521296e+05
2.09000000e+02	6.47033470e+05
2.10000000e+02	6.53616130e+05
2.11000000e+02	6.60269818e+05
2.12000000e+02	6.66995698e+05
2.13000000e+02	6.73794399e+05
2.14000000e+02	6.80667142e+05
2.15000000e+02	6.87614889e+05
2.16000000e+02	6.94638425e+05
2.17000000e+02	7.01738980e+05
2.18000000e+02	7.08917213e+05
2.19000000e+02	7.16174482e+05
2.20000000e+02	7.23511529e+05
2.21000000e+02	7.30929683e+05
2.22000000e+02	7.38429638e+05
2.23000000e+02	7.46012783e+05
2.24000000e+02	7.53679993e+05
2.25000000e+02	7.61432243e+05
2.26000000e+02	7.69270966e+05
2.27000000e+02	7.77197001e+05
2.28000000e+02	7.85211563e+05
2.29000000e+02	7.93315787e+05
2.30000000e+02	8.01510717e+05
2.31000000e+02	8.09797677e+05
2.32000000e+02	8.18177780e+05
2.33000000e+02	8.26652140e+05
2.34000000e+02	8.35222019e+05
2.35000000e+02	8.43888700e+05
2.36000000e+02	8.52653223e+05
2.37000000e+02	8.61516821e+05
2.38000000e+02	8.70481061e+05
2.39000000e+02	8.79547024e+05
2.40000000e+02	8.88716036e+05
2.41000000e+02	8.97989352e+05
2.42000000e+02	9.07368348e+05
2.43000000e+02	9.16854286e+05
2.44000000e+02	9.26448565e+05
2.45000000e+02	9.36152533e+05
2.46000000e+02	9.45967524e+05
2.47000000e+02	9.55894970e+05
2.48000000e+02	9.65936238e+05
2.49000000e+02	9.76092861e+05
2.50000000e+02	9.86366206e+05
2.51000000e+02	9.96757734e+05
2.52000000e+02	1.00726891e+06
2.53000000e+02	1.01790115e+06
2.54000000e+02	1.02865603e+06
2.55000000e+02	1.03953491e+06
2.56000000e+02	1.05053976e+06
2.57000000e+02	1.06167180e+06
2.58000000e+02	1.07293267e+06
2.59000000e+02	1.08432395e+06
2.60000000e+02	1.09584724e+06
2.61000000e+02	1.10750416e+06
2.62000000e+02	1.11929633e+06
2.63000000e+02	1.13122543e+06
2.64000000e+02	1.14329312e+06
2.65000000e+02	1.15550108e+06
2.66000000e+02	1.16785102e+06
2.67000000e+02	1.18034467e+06
2.68000000e+02	1.19298377e+06
2.69000000e+02	1.20577003e+06
2.70000000e+02	1.21870530e+06
2.71000000e+02	1.23179134e+06
2.72000000e+02	1.24502993e+06
2.73000000e+02	1.25842293e+06
2.74000000e+02	1.27197217e+06
2.75000000e+02	1.28567947e+06
2.76000000e+02	1.29954667e+06
2.77000000e+02	1.31357594e+06
2.78000000e+02	1.32776901e+06
2.79000000e+02	1.34212783e+06
2.80000000e+02	1.35665435e+06
2.81000000e+02	1.37135054e+06
2.82000000e+02	1.38621839e+06
2.83000000e+02	1.40125992e+06
2.84000000e+02	1.41647714e+06
2.85000000e+02	1.43187210e+06
2.86000000e+02	1.44744686e+06
2.87000000e+02	1.46320351e+06
2.88000000e+02	1.47914413e+06
2.89000000e+02	1.49527086e+06
2.90000000e+02	1.51158582e+06
2.91000000e+02	1.52809116e+06
2.92000000e+02	1.54478906e+06
2.93000000e+02	1.56168169e+06
2.94000000e+02	1.57877128e+06
2.95000000e+02	1.59606004e+06
2.96000000e+02	1.61355021e+06
2.97000000e+02	1.63124406e+06
2.98000000e+02	1.64914385e+06
2.99000000e+02	1.66725188e+06
3.00000000e+02	1.68557047e+06
3.01000000e+02	1.70410193e+06
3.02000000e+02	1.72284863e+06
3.03000000e+02	1.74181291e+06
3.04000000e+02	1.76099717e+06
3.05000000e+02	1.78040380e+06
3.06000000e+02	1.80003521e+06
3.07000000e+02	1.81989382e+06
3.08000000e+02	1.83998210e+06
3.09000000e+02	1.86030249e+06
3.10000000e+02	1.88085748e+06
3.11000000e+02	1.90164957e+06
3.12000000e+02	1.92268125e+06
3.13000000e+02	1.94395506e+06
3.14000000e+02	1.96547353e+06
3.15000000e+02	1.98723922e+06
3.16000000e+02	2.00925471e+06
3.17000000e+02	2.03152257e+06
3.18000000e+02	2.05404540e+06
3.19000000e+02	2.07682581e+06
3.20000000e+02	2.09986644e+06
3.21000000e+02	2.12316992e+06
3.22000000e+02	2.14673890e+06
3.23000000e+02	2.17057604e+06
3.24000000e+02	2.19468403e+06
3.25000000e+02	2.21906556e+06
3.26000000e+02	2.24372331e+06
3.27000000e+02	2.26866002e+06
3.28000000e+02	2.29387840e+06
3.29000000e+02	2.31938118e+06
3.30000000e+02	2.34517112e+06
3.31000000e+02	2.37125096e+06
3.32000000e+02	2.39762347e+06
3.33000000e+02	2.42429143e+06
3.34000000e+02	2.45125761e+06
3.35000000e+02	2.47852481e+06
3.36000000e+02	2.50609583e+06
3.37000000e+02	2.53397347e+06
3.38000000e+02	2.56216054e+06
3.39000000e+02	2.59065988e+06
3.40000000e+02	2.61947430e+06
3.41000000e+02	2.64860663e+06
3.42000000e+02	2.67805973e+06
3.43000000e+02	2.70783643e+06
3.44000000e+02	2.73793958e+06
3.45000000e+02	2.76837203e+06
3.46000000e+02	2.79913664e+06
3.47000000e+02	2.83023627e+06
3.48000000e+02	2.86167378e+06
3.49000000e+02	2.89345202e+06
3.50000000e+02	2.92557387e+06
3.51000000e+02	2.95804218e+06
3.52000000e+02	2.99085982e+06
3.53000000e+02	3.02402965e+06
3.54000000e+02	3.05755452e+06
3.55000000e+02	3.09143729e+06
3.56000000e+02	3.12568083e+06
3.57000000e+02	3.16028797e+06
3.58000000e+02	3.19526158e+06
3.59000000e+02	3.23060448e+06
3.60000000e+02	3.26631953e+06
3.61000000e+02	3.30240955e+06
3.62000000e+02	3.33887738e+06
3.63000000e+02	3.37572584e+06
3.64000000e+02	3.41295773e+06
3.65000000e+02	3.45057586e+06
3.66000000e+02	3.48858304e+06
3.67000000e+02	3.52698204e+06
3.68000000e+02	3.56577566e+06
3.69000000e+02	3.60496664e+06
3.70000000e+02	3.64455775e+06
3.71000000e+02	3.68455174e+06
3.72000000e+02	3.72495132e+06
3.73000000e+02	3.76575922e+06
3.74000000e+02	3.80697815e+06
3.75000000e+02	3.84861077e+06
3.76000000e+02	3.89065978e+06
3.77000000e+02	3.93312782e+06
3.78000000e+02	3.97601753e+06
3.79000000e+02	4.01933153e+06
3.80000000e+02	4.06307242e+06
3.81000000e+02	4.10724278e+06
3.82000000e+02	4.15184517e+06
3.83000000e+02	4.19688212e+06
3.84000000e+02	4.24235616e+06
3.85000000e+02	4.28826978e+06
3.86000000e+02	4.33462544e+06
3.87000000e+02	4.38142559e+06
3.88000000e+02	4.42867264e+06
3.89000000e+02	4.47636899e+06
3.90000000e+02	4.52451699e+06
3.91000000e+02	4.57311899e+06
3.92000000e+02	4.62217728e+06
3.93000000e+02	4.67169414e+06
3.94000000e+02	4.72167180e+06
3.95000000e+02	4.77211247e+06
3.96000000e+02	4.82301831e+06
3.97000000e+02	4.87439147e+06
3.98000000e+02	4.92623404e+06
3.99000000e+02	4.97854806e+06
4.00000000e+02	5.03133556e+06
4.01000000e+02	5.08459851e+06
4.02000000e+02	5.13833883e+06
4.03000000e+02	5.19255840e+06
4.04000000e+02	5.24725906e+06
4.05000000e+02	5.30244258e+06
4.06000000e+02	5.35811069e+06
4.07000000e+02	5.41426507e+06
4.08000000e+02	5.47090734e+06
4.09000000e+02	5.52803903e+06
4.10000000e+02	5.58566166e+06
4.11000000e+02	5.64377663e+06
4.12000000e+02	5.70238531e+06
4.13000000e+02	5.76148897e+06
4.14000000e+02	5.82108882e+06
4.15000000e+02	5.88118599e+06
4.16000000e+02	5.94178151e+06
4.17000000e+02	6.00287632e+06
4.18000000e+02	6.06447129e+06
4.19000000e+02	6.12656716e+06
4.20000000e+02	6.18916459e+06
4.21000000e+02	6.25226411e+06
4.22000000e+02	6.31586613e+06
4.23000000e+02	6.37997096e+06
4.24000000e+02	6.44457875e+06
4.25000000e+02	6.50968952e+06
4.26000000e+02	6.57530316e+06
4.27000000e+02	6.64141938e+06
4.28000000e+02	6.70803772e+06
4.29000000e+02	6.77515756e+06
4.30000000e+02	6.84277809e+06
4.31000000e+02	6.91089829e+06
4.32000000e+02	6.97951694e+06
4.33000000e+02	7.04863259e+06
4.34000000e+02	7.11824355e+06
4.35000000e+02	7.18834788e+06
4.36000000e+02	7.25894336e+06
4.37000000e+02	7.33002748e+06
4.38000000e+02	7.40159745e+06
4.39000000e+02	7.47365013e+06
4.40000000e+02	7.54618203e+06
4.41000000e+02	7.61918932e+06
4.42000000e+02	7.69266774e+06
4.43000000e+02	7.76661265e+06
4.44000000e+02	7.84101892e+06
4.45000000e+02	7.91588100e+06
4.46000000e+02	7.99119279e+06
4.47000000e+02	8.06694769e+06
4.48000000e+02	8.14313850e+06
4.49000000e+02	8.21975743e+06
4.50000000e+02	8.29679604e+06
4.51000000e+02	8.37424520e+06
4.52000000e+02	8.45209506e+06
4.53000000e+02	8.53033499e+06
4.54000000e+02	8.60895351e+06
4.55000000e+02	8.68793831e+06
4.56000000e+02	8.76727609e+06
4.57000000e+02	8.84695261e+06
4.58000000e+02	8.92695255e+06
4.59000000e+02	9.00725946e+06
4.60000000e+02	9.08785572e+06
4.61000000e+02	9.16872246e+06
4.62000000e+02	9.24983945e+06
4.63000000e+02	9.33118506e+06
4.64000000e+02	9.41273613e+06
4.65000000e+02	9.49446792e+06
4.66000000e+02	9.57635403e+06
4.67000000e+02	9.65836622e+06
4.68000000e+02	9.74047440e+06
4.69000000e+02	9.82264645e+06
4.70000000e+02	9.90484816e+06
4.71000000e+02	9.98704307e+06
4.72000000e+02	1.00691924e+07
4.73000000e+02	1.01512547e+07
4.74000000e+02	1.02331862e+07
4.75000000e+02	1.03149401e+07
4.76000000e+02	1.03964669e+07
4.77000000e+02	1.04777138e+07
4.78000000e+02	1.05586249e+07
4.79000000e+02	1.06391410e+07
4.80000000e+02	1.07191993e+07
4.81000000e+02	1.07987332e+07
4.82000000e+02	1.08776724e+07
4.83000000e+02	1.09559423e+07
4.84000000e+02	1.10334643e+07
4.85000000e+02	1.11101553e+07
4.86000000e+02	1.11859275e+07
4.87000000e+02	1.12606887e+07
4.88000000e+02	1.13343415e+07
4.89000000e+02	1.14067834e+07
4.90000000e+02	1.14779068e+07
4.91000000e+02	1.15475987e+07
4.92000000e+02	1.16157406e+07
4.93000000e+02	1.16822083e+07
4.94000000e+02	1.17468720e+07
4.95000000e+02	1.18095960e+07
4.96000000e+02	1.18702388e+07
4.97000000e+02	1.19286531e+07
4.98000000e+02	1.19846858e+07
4.99000000e+02	1.20381778e+07
5.00000000e+02	1.20889645e+07
5.01000000e+02	1.21368760e+07
5.02000000e+02	1.21817367e+07
5.03000000e+02	1.22233662e+07
5.04000000e+02	1.22615796e+07
5.05000000e+02	1.22961877e+07
5.06000000e+02	1.23269973e+07
5.07000000e+02	1.23538126e+07
5.08000000e+02	1.23764350e+07
5.09000000e+02	1.23946645e+07
5.10000000e+02	1.24083005e+07
5.11000000e+02	1.24171424e+07
5.12000000e+02	1.24209914e+07
5.13000000e+02	1.24196512e+07
5.14000000e+02	1.24129296e+07
5.15000000e+02	1.24006398e+07
5.16000000e+02	1.23826023e+07
5.17000000e+02	1.23586459e+07
5.18000000e+02	1.23286102e+07
5.19000000e+02	1.22923468e+07
5.20000000e+02	1.22497216e+07
5.21000000e+02	1.22006161e+07
5.22000000e+02	1.21449300e+07
5.23000000e+02	1.20825826e+07
5.24000000e+02	1.20135145e+07
5.25000000e+02	1.19376897e+07
5.26000000e+02	1.18550970e+07
5.27000000e+02	1.17657516e+07
5.28000000e+02	1.16696959e+07
5.29000000e+02	1.15670010e+07
5.30000000e+02	1.14577674e+07
5.31000000e+02	1.13421253e+07
5.32000000e+02	1.12202347e+07
5.33000000e+02	1.10922854e+07
5.34000000e+02	1.09584965e+07
5.35000000e+02	1.08191152e+07
5.36000000e+02	1.06744158e+07
5.37000000e+02	1.05246979e+07
5.38000000e+02	1.03702846e+07
5.39000000e+02	1.02115200e+07
5.40000000e+02	1.00487667e+07
5.41000000e+02	9.88240336e+06
5.42000000e+02	9.71282095e+06
5.43000000e+02	9.54042026e+06
5.44000000e+02	9.36560834e+06
5.45000000e+02	9.18879530e+06
5.46000000e+02	9.01039106e+06
5.47000000e+02	8.83080216e+06
5.48000000e+02	8.65042869e+06
5.49000000e+02	8.46966145e+06
5.50000000e+02	8.28887926e+06
5.51000000e+02	8.10844657e+06
5.52000000e+02	7.92871132e+06
5.53000000e+02	7.75000312e+06
5.54000000e+02	7.57263171e+06
5.55000000e+02	7.39688577e+06
5.56000000e+02	7.22303203e+06
5.57000000e+02	7.05131465e+06
5.58000000e+02	6.88195498e+06
5.59000000e+02	6.71515145e+06
5.60000000e+02	6.55107987e+06
5.61000000e+02	6.38989379e+06
5.62000000e+02	6.23172520e+06
5.63000000e+02	6.07668530e+06
5.64000000e+02	5.92486544e+06
5.65000000e+02	5.77633818e+06
5.66000000e+02	5.63115841e+06
5.67000000e+02	5.48936456e+06
5.68000000e+02	5.35097982e+06
5.69000000e+02	5.21601339e+06
5.70000000e+02	5.08446171e+06
5.71000000e+02	4.95630971e+06
5.72000000e+02	4.83153201e+06
5.73000000e+02	4.71009404e+06
5.74000000e+02	4.59195316e+06
5.75000000e+02	4.47705972e+06
5.76000000e+02	4.36535802e+06
5.77000000e+02	4.25678725e+06
5.78000000e+02	4.15128230e+06
5.79000000e+02	4.04877459e+06
5.80000000e+02	3.94919276e+06
5.81000000e+02	3.85246334e+06
5.82000000e+02	3.75851129e+06
5.83000000e+02	3.66726057e+06
5.84000000e+02	3.57863459e+06
5.85000000e+02	3.49255664e+06
5.86000000e+02	3.40895023e+06
5.87000000e+02	3.32773939e+06
5.88000000e+02	3.24884901e+06
5.89000000e+02	3.17220500e+06
5.90000000e+02	3.09773451e+06
5.91000000e+02	3.02536613e+06
5.92000000e+02	2.95502996e+06
5.93000000e+02	2.88665775e+06
5.94000000e+02	2.82018301e+06
5.95000000e+02	2.75554102e+06
5.96000000e+02	2.69266891e+06
5.97000000e+02	2.63150567e+06
5.98000000e+02	2.57199218e+06
5.99000000e+02	2.51407120e+06
6.00000000e+02	2.45768738e+06
6.01000000e+02	2.40278720e+06
6.02000000e+02	2.34931900e+06
6.03000000e+02	2.29723292e+06
6.04000000e+02	2.24648084e+06
6.05000000e+02	2.19701640e+06
6.06000000e+02	2.14879490e+06
6.07000000e+02	2.10177330e+06
6.08000000e+02	2.05591013e+06
6.09000000e+02	2.01116545e+06
6.10000000e+02	1.96750085e+06
6.11000000e+02	1.92487931e+06
6.12000000e+02	1.88326523e+06
6.13000000e+02	1.84262435e+06
6.14000000e+02	1.80292368e+06
6.15000000e+02	1.76413147e+06
6.16000000e+02	1.72621720e+06
6.17000000e+02	1.68915144e+06
6.18000000e+02	1.65290590e+06
6.19000000e+02	1.61745333e+06
6.20000000e+02	1.58276749e+06
6.21000000e+02	1.54882311e+06
6.22000000e+02	1.51559587e+06
6.23000000e+02	1.48306230e+06
6.24000000e+02	1.45119983e+06
6.25000000e+02	1.41998668e+06
6.26000000e+02	1.38940185e+06
6.27000000e+02	1.35942511e+06
6.28000000e+02	1.33003693e+06
6.29000000e+02	1.30121847e+06
6.30000000e+02	1.27295156e+06
6.31000000e+02	1.24521866e+06
6.32000000e+02	1.21800280e+06
6.33000000e+02	1.19128763e+06
6.34000000e+02	1.16505733e+06
6.35000000e+02	1.13929661e+06
6.36000000e+02	1.11399070e+06
6.37000000e+02	1.08912529e+06
6.38000000e+02	1.06468657e+06
6.39000000e+02	1.04066115e+06
6.40000000e+02	1.01703607e+06
6.41000000e+02	9.93798784e+05
6.42000000e+02	9.70937132e+05
6.43000000e+02	9.48439335e+05
6.44000000e+02	9.26293968e+05
6.45000000e+02	9.04489954e+05
6.46000000e+02	8.83016543e+05
6.47000000e+02	8.61863301e+05
6.48000000e+02	8.41020100e+05
6.49000000e+02	8.20477096e+05
6.50000000e+02	8.00224729e+05
6.51000000e+02	7.80253700e+05
6.52000000e+02	7.60554966e+05
6.53000000e+02	7.41119729e+05
6.54000000e+02	7.21939419e+05
6.55000000e+02	7.03005695e+05
6.56000000e+02	6.84310425e+05
6.57000000e+02	6.65845682e+05
6.58000000e+02	6.47603731e+05
6.59000000e+02	6.29577024e+05
