# Simulation Zeq1_tanh_50mic_5e20_B0_20ps_f0f1 
#
#temps 2.000999999999940e-11 s 
#position suivant x  437 (micron) 
#
#col 0 : vitesse (cm/s) 
#col 1 : f0 x v**2 (a. u.) 
#col 2 : m_e x f1 x v**5 / 2 (a. u.) 
#
24861416.497778	14496299.075900	-0.000001
74584249.493334	130203253.575913	-0.010183
124307082.488890	360216584.503869	-1.005146
174029915.484445	701756295.768661	-20.605348
223752748.480001	1150704919.366753	-195.768740
273475581.475557	1701669482.187133	-1176.037493
323198414.471113	2348062347.804296	-5206.724478
372921247.466669	3082199437.411282	-18532.841117
422644080.462225	3895414017.293700	-55983.904449
472366913.457781	4778183963.315946	-148785.344526
522089746.453336	5720270181.826468	-356742.646792
571812579.448892	6710863686.871527	-785922.853003
621535412.444448	7738738702.322596	-1612786.604532
671258245.440004	8792409102.488670	-3115387.019817
720981078.435560	9860285470.933935	-5711748.517533
770703911.431116	10930830121.116875	-10004885.080692
820426744.426672	11992707511.168356	-16833145.390139
870149577.422228	13034927638.521883	-27323728.996740
919872410.417783	14046980196.721558	-42946362.829291
969595243.413339	15018957514.785006	-65563328.969680
1019318076.408895	15941664572.088917	-97471364.610435
1069040909.404451	16806714681.676563	-141430483.632808
1118763742.400007	17606609754.468830	-200674559.286776
1168486575.395563	18334804388.153641	-278898609.478230
1218209408.391119	18985753359.535961	-380218173.464047
1267932241.386675	19554942430.026241	-509096973.827832
1317655074.382231	20038902693.289570	-670240209.930651
1367377907.377786	20435208994.971886	-868452294.342130
1417100740.373342	20742463230.687008	-1108459565.063703
1466823573.368898	20960263574.800873	-1394700406.579796
1516546406.364454	21089160904.603649	-1731087198.929215
1566269239.360010	21130603858.944336	-2120746482.629536
1615992072.355566	21086874105.067329	-2565745570.839716
1665714905.351122	20961013481.116940	-3066815453.821269
1715437738.346678	20756744734.488724	-3623081129.179073
1765160571.342233	20478387588.882072	-4231811375.125268
1814883404.337789	20130771847.428852	-4888200403.052645
1864606237.333345	19719149179.077499	-5585193762.788318
1914329070.328901	19249105137.740173	-6313370252.289448
1964051903.324457	18726472857.393089	-7060890601.284724
2013774736.320013	18157249698.353333	-7813522111.276481
2063497569.315569	17547517980.975090	-8554746617.279249
2113220402.311125	16903370752.614069	-9265956953.298922
2162943235.306680	16230843353.449675	-9926744719.905926
2212666068.302236	15535851357.600649	-10515279639.077402
2262388901.297792	14824135278.528318	-11008778189.852615
2312111734.293348	14101212245.919773	-11384056586.615957
2361834567.288904	13372334689.199249	-11618160486.222826
2411557400.284460	12642455904.493856	-11689061044.682838
2461280233.280015	11916202240.805681	-11576403998.763681
2511003066.275571	11197851520.608616	-11262295196.127192
2560725899.271127	10491317213.223009	-10732102293.598797
2610448732.266683	9800137808.954754	-9975248055.942970
2660171565.262239	9127470800.849030	-8985965749.096375
2709894398.257795	8476090671.373073	-7763981607.670273
2759617231.253351	7848390305.210555	-6315083587.288782
2809340064.248907	7246385307.331382	-4651530281.625553
2859062897.244462	6671720796.333050	-2792250161.549566
2908785730.240018	6125680362.605114	-762780853.833663
2958508563.235574	5609197020.879681	1405096954.974928
3008231396.231130	5122866134.015154	3674064237.083848
3057954229.226686	4666960421.441800	6002319428.842414
3107677062.222242	4241447269.887440	8344968498.045025
3157399895.217798	3846008613.609286	10655696826.170362
3207122728.213354	3480063627.972543	12888632946.939806
3256845561.208910	3142794374.321898	15000281021.538404
3306568394.204465	2833174349.394539	16951376966.492413
3356291227.200021	2549999647.911169	18708518157.552456
3406014060.195577	2291922175.065554	20245431643.855133
3455736893.191133	2057484087.807959	21543779991.670887
3505459726.186689	1845152442.170417	22593452428.542988
3555182559.182245	1653352913.063640	23392344056.982685
3604905392.177801	1480501452.782412	23945678539.480618
3654628225.173357	1325032866.378303	24264971555.876080
3704351058.168912	1185425488.967187	24366758216.119476
3754073891.164468	1060221424.104314	24271214739.412060
3803796724.160024	948042100.270692	24000795360.584866
3853519557.155580	847599196.473897	23578983233.069935
3903242390.151136	757701237.839570	23029224357.675068
3952965223.146692	677256353.560102	22374082451.050457
4002688056.142248	605271811.028329	21634624247.405025
4052410889.137804	540850993.528626	20830022252.360580
4102133722.133359	483188483.676838	19977346694.683182
4151856555.128915	431563864.720618	19091510270.280041
4201579388.124471	385334772.348634	18185327138.484699
4251302221.120027	343929635.198458	17269649923.333954
4301025054.115582	306840444.781124	16353553519.103289
4350747887.111138	273615803.810610	15444540799.270527
4400470720.106694	243854421.384240	14548751775.971796
4450193553.102250	217199156.734833	13671163580.464466
4499916386.097806	193331660.804280	12815773461.824194
4549639219.093362	171967625.657441	11985760694.434286
4599362052.088918	152852623.837407	11183625913.482981
4649084885.084474	135758501.009442	10411308132.965055
4698807718.080029	120480273.432354	9670280761.861612
4748530551.075585	106833475.225121	8961628535.749596
4798253384.071141	94651897.447772	8286107591.718086
4847976217.066697	83785660.938436	7644191106.505397
4897699050.062253	74099566.866103	7036103029.185626
4947421883.057809	65471672.820110	6461842517.125446
4997144716.053365	57792047.805539	5921201724.363607
5046867549.048921	50961666.349262	5413779502.262764
5096590382.044477	44891409.816351	4938993386.892257
5146313215.040032	39501151.344006	4496091855.906581
5196036048.035588	34718908.794143	4084168308.615224
5245758881.031144	30480057.164167	3702177595.518245
5295481714.026700	26726597.249832	3348955234.083453
5345204547.022256	23406480.749483	3023238878.348417
5394927380.017812	20472993.386105	2723691156.095000
5444650213.013368	17884197.267367	2448922750.070134
5494373046.008924	15602432.240067	2197514607.065517
5544095879.004479	13593873.968421	1968038299.357445
5593818712.000035	11828144.569539	1759073873.421217
5643541544.995591	10277970.177088	1569224825.397504
5693264377.991147	8918879.156087	1397130163.941624
5742987210.986703	7728934.627720	1241473743.816392
5792710043.982259	6688495.556502	1100991199.796983
5842432876.977815	5780001.530149	974474873.197764
5892155709.973371	4987777.353360	860777113.179953
5941878542.968926	4297854.565678	758812306.328936
5991601375.964482	3697807.760758	667557893.772258
6041324208.960038	3176604.202679	586054603.548831
6091047041.955594	2724465.648926	513406048.460838
6140769874.951150	2332741.542795	448777815.709672
6190492707.946706	1993792.864798	391396125.414017
6240215540.942262	1700886.021635	340546123.511695
6289938373.937818	1448096.142253	295569879.921504
6339661206.933373	1230219.166218	255864119.500081
6389384039.928929	1042692.116141	220877744.705461
6439106872.924485	881520.927878	190109167.663146
6488829705.920041	743215.237522	163103509.323509
6538552538.915597	624729.549630	139449679.108835
6588275371.911153	523410.239583	118777369.168003
6637998204.906709	436947.881202	100754000.777262
6687721037.902265	363334.458793	85081630.933119
6737443870.897820	300825.048196	71493882.815541
6787166703.893376	247903.628890	59752901.889925
6836889536.888932	203252.725762	49646408.787609
6886612369.884488	165726.608861	40984861.372528
6936335202.880044	134327.831630	33598803.231962
6986058035.875600	108186.869489	27336416.677963
7035780868.871156	86544.652786	22061346.520791
7085503701.866712	68737.736315	17650802.921509
7135226534.862267	54185.858266	13993997.621722
7184949367.857823	42381.579946	10990913.757817
7234672200.853379	32881.694920	8551402.532527
7284395033.848935	25300.090623	6594585.411466
7334117866.844491	19301.753988	5048497.898213
7383840699.840047	14597.705007	3849827.176702
7433563532.835603	10940.652834	2943526.292955
7483286365.831159	8121.286502	2282058.227541
7533009198.826715	5965.025478	1823990.741044
7582732031.822270	4329.008518	1531792.869974
7632454864.817826	3098.913636	1368574.587247
7682177697.813382	2185.181629	1293023.982770
7731900530.808938	1518.439848	1251269.260360
7781623363.804494	1044.437204	1168378.416377
7831346196.800050	719.488929	958667.460811
7881069029.795606	507.301481	590994.706931
7930791862.791162	377.069060	189099.663160
