# Simulation Zeq1_tanh_50mic_5e20_B0_20ps_f0f1 
#
#temps 3.000000000000013e-12 s 
#position suivant x    433 (micron) 
#
#col 0 : vitesse (cm/s) 
#col 1 : f0 x v**2 (a. u.) 
#col 2 : m_e x f1 x v**5 / 2 (a. u.) 
#
24861416.497778	13749917.533130	-0.000001
74584249.493334	123508858.763151	-0.017441
124307082.488890	341748488.266917	-1.721743
174029915.484445	665930847.243026	-35.298668
223752748.480001	1092295102.644120	-335.407598
273475581.475557	1615912065.168674	-2015.179450
323198414.471113	2230755453.090374	-8923.428841
372921247.466669	2929788652.760341	-31768.387273
422644080.462225	3705065444.421488	-95987.243917
472366913.457781	4547842910.878062	-255163.549114
522089746.453336	5448704532.448385	-611973.238388
571812579.448892	6397691300.201508	-1348611.485488
621535412.444448	7384438548.851742	-2768368.248867
671258245.440004	8398316145.765620	-5349452.684441
720981078.435560	9428569627.329601	-9811312.897143
770703911.431116	10464459914.616299	-17192583.374505
820426744.426672	11495399305.550829	-28938470.948086
870149577.422228	12511081565.216690	-46993940.253756
919872410.417783	13501604101.748671	-73897581.319491
969595243.413339	14457580421.158688	-112869649.346868
1019318076.408895	15370241294.565628	-167886580.125253
1069040909.404451	16231523339.289591	-243733420.347812
1118763742.400007	17034144004.108820	-346025173.188154
1168486575.395563	17771662251.210827	-481188124.778716
1218209408.391119	18438524535.301926	-656392831.473847
1267932241.386675	19030095986.320553	-879431608.680370
1317655074.382231	19542676998.749828	-1158534997.216626
1367377907.377786	19973505710.443707	-1502123611.394809
1417100740.373342	20320747109.572353	-1918493681.115661
1466823573.368898	20583469731.348705	-2415436137.359103
1516546406.364454	20761611088.531155	-2999790169.505242
1566269239.360010	20855933117.538498	-3676933367.293818
1615992072.355566	20867969020.300957	-4450213158.401543
1665714905.351122	20799962953.825638	-5320329816.075545
1715437738.346678	20654804079.088387	-6284690692.395017
1765160571.342233	20435956533.790970	-7336767885.489215
1814883404.337789	20147386931.184807	-8465505015.778176
1864606237.333345	19793490989.390377	-9654829956.452848
1914329070.328901	19379020840.020164	-10883336185.274849
1964051903.324457	18909014427.546684	-12124193708.090118
2013774736.320013	18388728216.232777	-13345341165.474001
2063497569.315569	17823574114.234932	-14509994089.105082
2113220402.311125	17219061224.322701	-15577483035.174101
2162943235.306680	16580742669.390072	-16504411481.333893
2212666068.302236	15914167413.144156	-17246099533.645168
2262388901.297792	15224836703.121845	-17758257682.298805
2312111734.293348	14518164534.189672	-17998816556.500732
2361834567.288904	13799441381.538197	-17929824853.441132
2411557400.284460	13073800392.260075	-17519318903.522438
2461280233.280015	12346185256.008553	-16743063926.021585
2511003066.275571	11621319093.716089	-15586068968.719780
2560725899.271127	10903673898.419296	-14043784728.751524
2610448732.266683	10197440318.174736	-12122905734.803017
2660171565.262239	9506497867.388603	-9841715425.631178
2709894398.257795	8834385965.345020	-7229934006.457644
2759617231.253351	8184276502.553321	-4328053882.520475
2809340064.248907	7558948898.717008	-1186174935.705364
2859062897.244462	6960768813.510104	2137619434.270526
2908785730.240018	6391671778.796985	5579276428.074858
2958508563.235574	5853153019.784827	9071083348.267639
3008231396.231130	5346264612.062888	12544156549.613169
3057954229.226686	4871620880.915217	15930979317.647085
3107677062.222242	4429412599.306598	19167851878.389164
3157399895.217798	4019430104.038455	22197119967.653439
3207122728.213354	3641094958.806310	24969061533.848030
3256845561.208910	3293499289.682317	27443333686.627823
3306568394.204465	2975451448.399729	29589912407.807865
3356291227.200021	2685526266.759501	31389493347.151573
3406014060.195577	2422117890.486747	32833360059.264107
3455736893.191133	2183493050.940939	33922762750.343719
3505459726.186689	1967842661.405931	34667882501.881844
3555182559.182245	1773329807.590001	35086480040.209625
3604905392.177801	1598132519.197911	35202342364.078461
3654628225.173357	1440480127.082186	35043643930.285225
3704351058.168912	1298682483.863223	34641332380.438210
3754073891.164468	1171151811.253017	34027632708.850452
3803796724.160024	1056417382.880895	33234741950.697945
3853519557.155580	953133630.834384	32293761043.745800
3903242390.151136	860082542.395439	31233884696.307018
3952965223.146692	776171385.832010	30081846959.780586
4002688056.142248	700426869.698838	28861601383.641777
4052410889.137804	631986812.671288	27594201478.772575
4102133722.133359	570090300.900874	26297839952.702309
4151856555.128915	514067161.579912	24988003336.403542
4201579388.124471	463327408.903045	23677701148.193928
4251302221.120027	417351143.169445	22377734313.709732
4301025054.115582	375679221.437359	21096974808.107937
4350747887.111138	337904879.657282	19842636180.643288
4400470720.106694	303666376.452664	18620521837.202614
4450193553.102250	272640648.562600	17435244070.083961
4499916386.097806	244537914.587762	16290411550.321903
4549639219.093362	219097132.820608	15188786301.878193
4599362052.088918	196082205.199616	14132413197.264357
4649084885.084474	175278817.905247	13122726004.794077
4698807718.080029	156491815.275008	12160634252.556917
4748530551.075585	139543014.259697	11246594920.565002
4798253384.071141	124269378.867599	10380672437.825481
4847976217.066697	110521486.514847	9562589834.108919
4897699050.062253	98162229.788341	8791773254.936960
4947421883.057809	87065707.432415	8067391481.062971
4997144716.053365	77116267.186933	7388391625.393072
5046867549.048921	68207670.546197	6753531795.642409
5096590382.044477	60242355.586967	6161411247.161186
5146313215.040032	53130779.031331	5610498339.619077
5196036048.035588	46790822.711686	5099156481.694358
5245758881.031144	41147252.908648	4625668164.258940
5295481714.026700	36131223.563486	4188257122.879551
5345204547.022256	31679816.477072	3785108657.213653
5394927380.017812	27735613.205955	3414388117.611721
5444650213.013368	24246294.641403	3074257573.813254
5494373046.008924	21164265.232634	2762890692.817324
5544095879.004479	18446299.562752	2478485861.707095
5593818712.000035	16053209.557446	2219277609.154676
5643541544.995591	13949530.996500	1983546386.358392
5693264377.991147	12103228.311627	1769626788.286264
5742987210.986703	10485416.857662	1575914302.175603
5792710043.982259	9070101.972323	1400870678.243070
5842432876.977815	7833934.236946	1243028026.977392
5892155709.973371	6755980.374837	1100991747.968723
5941878542.968926	5817509.291671	973442405.737184
5991601375.964482	5001792.695215	859136654.187161
6041324208.960038	4293919.792014	756907323.585531
6091047041.955594	3680625.490164	665662772.549523
6140769874.951150	3150131.556212	584385611.127976
6190492707.946706	2692000.130416	512130888.178613
6240215540.942262	2296999.003809	448023831.902009
6289938373.937818	1956978.052570	391257234.837810
6339661206.933373	1664756.194170	341088553.547589
6389384039.928929	1414018.262522	296836801.506532
6439106872.924485	1199221.170531	257879286.697071
6488829705.920041	1015508.747320	223648266.776076
6538552538.915597	858634.665025	193627557.899943
6588275371.911153	724892.842085	167349146.929290
6637998204.906709	611054.781578	144389846.224597
6687721037.902265	514313.282559	124368009.675438
6737443870.897820	432232.004964	106940354.861011
6787166703.893376	362700.396507	91798893.180677
6836889536.888932	303893.501977	78667998.891691
6886612369.884488	254236.210908	67301615.879842
6936335202.880044	212371.538834	57480622.914097
6986058035.875600	177132.542161	49010351.904538
7035780868.871156	147517.507673	41718270.532342
7085503701.866712	122668.077979	35451818.220988
7135226534.862267	101850.012714	30076403.088538
7184949367.857823	84436.279554	25473556.369267
7234672200.853379	69892.228199	21539228.575638
7284395033.848935	57762.586904	18182233.766705
7334117866.844491	47660.072001	15322831.744087
7383840699.840047	39255.399235	12891445.976847
7433563532.835603	32268.530172	10827505.754372
7483286365.831159	26460.999084	9078425.356459
7533009198.826715	21629.223322	7598690.471965
7582732031.822270	17598.759012	6348994.458455
7632454864.817826	14219.630445	5295147.748135
7682177697.813382	11363.181917	4405955.525519
7731900530.808938	8921.463448	3648107.663575
7781623363.804494	6810.913304	2975427.297690
7831346196.800050	4981.953399	2315668.904603
7881069029.795606	3431.487004	1584070.980621
7930791862.791162	2199.460628	781760.128724
