# Profil de FluxX au temps 7.000000000000077e-12 
# simu : /Volumes/MERCURE/JOBS/Zeq1_tanh_50mic_5e20_B0_20ps/GNU/FluxX@y-c.set
# col 0 : abscisse (um)
# col 1 : FluxX (W/cm2)
0.00000000e+00	0.00000000e+00
1.00000000e+00	8.08820094e+07
2.00000000e+00	1.61231437e+08
3.00000000e+00	2.43464105e+08
4.00000000e+00	3.24924959e+08
5.00000000e+00	4.06815354e+08
6.00000000e+00	4.89319742e+08
7.00000000e+00	5.72583715e+08
8.00000000e+00	6.56742131e+08
9.00000000e+00	7.41927408e+08
1.00000000e+01	8.28272760e+08
1.10000000e+01	9.15913025e+08
1.20000000e+01	1.00498495e+09
1.30000000e+01	1.09562738e+09
1.40000000e+01	1.18798147e+09
1.50000000e+01	1.28219088e+09
1.60000000e+01	1.37840197e+09
1.70000000e+01	1.47676402e+09
1.80000000e+01	1.57742944e+09
1.90000000e+01	1.68055397e+09
2.00000000e+01	1.78629693e+09
2.10000000e+01	1.89482142e+09
2.20000000e+01	2.00629456e+09
2.30000000e+01	2.12088768e+09
2.40000000e+01	2.23877663e+09
2.50000000e+01	2.36014197e+09
2.60000000e+01	2.48516919e+09
2.70000000e+01	2.61404903e+09
2.80000000e+01	2.74697769e+09
2.90000000e+01	2.88415710e+09
3.00000000e+01	3.02579517e+09
3.10000000e+01	3.17210609e+09
3.20000000e+01	3.32331059e+09
3.30000000e+01	3.47963624e+09
3.40000000e+01	3.64131769e+09
3.50000000e+01	3.80859705e+09
3.60000000e+01	3.98172413e+09
3.70000000e+01	4.16095677e+09
3.80000000e+01	4.34656116e+09
3.90000000e+01	4.53881213e+09
4.00000000e+01	4.73799356e+09
4.10000000e+01	4.94439863e+09
4.20000000e+01	5.15833024e+09
4.30000000e+01	5.38010130e+09
4.40000000e+01	5.61003516e+09
4.50000000e+01	5.84846593e+09
4.60000000e+01	6.09573886e+09
4.70000000e+01	6.35221078e+09
4.80000000e+01	6.61825042e+09
4.90000000e+01	6.89423887e+09
5.00000000e+01	7.18056999e+09
5.10000000e+01	7.47765081e+09
5.20000000e+01	7.78590196e+09
5.30000000e+01	8.10575815e+09
5.40000000e+01	8.43766857e+09
5.50000000e+01	8.78209738e+09
5.60000000e+01	9.13952417e+09
5.70000000e+01	9.51044445e+09
5.80000000e+01	9.89537010e+09
5.90000000e+01	1.02948299e+10
6.00000000e+01	1.07093701e+10
6.10000000e+01	1.11395549e+10
6.20000000e+01	1.15859667e+10
6.30000000e+01	1.20492071e+10
6.40000000e+01	1.25298973e+10
6.50000000e+01	1.30286784e+10
6.60000000e+01	1.35462124e+10
6.70000000e+01	1.40831823e+10
6.80000000e+01	1.46402930e+10
6.90000000e+01	1.52182721e+10
7.00000000e+01	1.58178698e+10
7.10000000e+01	1.64398604e+10
7.20000000e+01	1.70850421e+10
7.30000000e+01	1.77542383e+10
7.40000000e+01	1.84482981e+10
7.50000000e+01	1.91680964e+10
7.60000000e+01	1.99145355e+10
7.70000000e+01	2.06885450e+10
7.80000000e+01	2.14910829e+10
7.90000000e+01	2.23231363e+10
8.00000000e+01	2.31857216e+10
8.10000000e+01	2.40798862e+10
8.20000000e+01	2.50067081e+10
8.30000000e+01	2.59672974e+10
8.40000000e+01	2.69627968e+10
8.50000000e+01	2.79943824e+10
8.60000000e+01	2.90632642e+10
8.70000000e+01	3.01706872e+10
8.80000000e+01	3.13179319e+10
8.90000000e+01	3.25063153e+10
9.00000000e+01	3.37371914e+10
9.10000000e+01	3.50119520e+10
9.20000000e+01	3.63320278e+10
9.30000000e+01	3.76988888e+10
9.40000000e+01	3.91140451e+10
9.50000000e+01	4.05790478e+10
9.60000000e+01	4.20954897e+10
9.70000000e+01	4.36650061e+10
9.80000000e+01	4.52892754e+10
9.90000000e+01	4.69700199e+10
1.00000000e+02	4.87090066e+10
1.01000000e+02	5.05080479e+10
1.02000000e+02	5.23690021e+10
1.03000000e+02	5.42937744e+10
1.04000000e+02	5.62843174e+10
1.05000000e+02	5.83426317e+10
1.06000000e+02	6.04707668e+10
1.07000000e+02	6.26708213e+10
1.08000000e+02	6.49449437e+10
1.09000000e+02	6.72953333e+10
1.10000000e+02	6.97242401e+10
1.11000000e+02	7.22339659e+10
1.12000000e+02	7.48268644e+10
1.13000000e+02	7.75053417e+10
1.14000000e+02	8.02718572e+10
1.15000000e+02	8.31289231e+10
1.16000000e+02	8.60791058e+10
1.17000000e+02	8.91250251e+10
1.18000000e+02	9.22693557e+10
1.19000000e+02	9.55148262e+10
1.20000000e+02	9.88642203e+10
1.21000000e+02	1.02320376e+11
1.22000000e+02	1.05886188e+11
1.23000000e+02	1.09564603e+11
1.24000000e+02	1.13358624e+11
1.25000000e+02	1.17271311e+11
1.26000000e+02	1.21305775e+11
1.27000000e+02	1.25465186e+11
1.28000000e+02	1.29752764e+11
1.29000000e+02	1.34171786e+11
1.30000000e+02	1.38725582e+11
1.31000000e+02	1.43417535e+11
1.32000000e+02	1.48251082e+11
1.33000000e+02	1.53229711e+11
1.34000000e+02	1.58356964e+11
1.35000000e+02	1.63636430e+11
1.36000000e+02	1.69071752e+11
1.37000000e+02	1.74666622e+11
1.38000000e+02	1.80424779e+11
1.39000000e+02	1.86350011e+11
1.40000000e+02	1.92446151e+11
1.41000000e+02	1.98717079e+11
1.42000000e+02	2.05166719e+11
1.43000000e+02	2.11799036e+11
1.44000000e+02	2.18618040e+11
1.45000000e+02	2.25627777e+11
1.46000000e+02	2.32832334e+11
1.47000000e+02	2.40235834e+11
1.48000000e+02	2.47842435e+11
1.49000000e+02	2.55656329e+11
1.50000000e+02	2.63681739e+11
1.51000000e+02	2.71922916e+11
1.52000000e+02	2.80384141e+11
1.53000000e+02	2.89069718e+11
1.54000000e+02	2.97983974e+11
1.55000000e+02	3.07131258e+11
1.56000000e+02	3.16515937e+11
1.57000000e+02	3.26142391e+11
1.58000000e+02	3.36015016e+11
1.59000000e+02	3.46138218e+11
1.60000000e+02	3.56516410e+11
1.61000000e+02	3.67154010e+11
1.62000000e+02	3.78055437e+11
1.63000000e+02	3.89225111e+11
1.64000000e+02	4.00667447e+11
1.65000000e+02	4.12386852e+11
1.66000000e+02	4.24387725e+11
1.67000000e+02	4.36674448e+11
1.68000000e+02	4.49251390e+11
1.69000000e+02	4.62122896e+11
1.70000000e+02	4.75293290e+11
1.71000000e+02	4.88766868e+11
1.72000000e+02	5.02547896e+11
1.73000000e+02	5.16640604e+11
1.74000000e+02	5.31049186e+11
1.75000000e+02	5.45777794e+11
1.76000000e+02	5.60830535e+11
1.77000000e+02	5.76211467e+11
1.78000000e+02	5.91924596e+11
1.79000000e+02	6.07973873e+11
1.80000000e+02	6.24363185e+11
1.81000000e+02	6.41096361e+11
1.82000000e+02	6.58177158e+11
1.83000000e+02	6.75609265e+11
1.84000000e+02	6.93396293e+11
1.85000000e+02	7.11541779e+11
1.86000000e+02	7.30049175e+11
1.87000000e+02	7.48921846e+11
1.88000000e+02	7.68163072e+11
1.89000000e+02	7.87776035e+11
1.90000000e+02	8.07763825e+11
1.91000000e+02	8.28129430e+11
1.92000000e+02	8.48875735e+11
1.93000000e+02	8.70005518e+11
1.94000000e+02	8.91521449e+11
1.95000000e+02	9.13426084e+11
1.96000000e+02	9.35721863e+11
1.97000000e+02	9.58411107e+11
1.98000000e+02	9.81496016e+11
1.99000000e+02	1.00497867e+12
2.00000000e+02	1.02886100e+12
2.01000000e+02	1.05314485e+12
2.02000000e+02	1.07783189e+12
2.03000000e+02	1.10292367e+12
2.04000000e+02	1.12842162e+12
2.05000000e+02	1.15432701e+12
2.06000000e+02	1.18064098e+12
2.07000000e+02	1.20736452e+12
2.08000000e+02	1.23449849e+12
2.09000000e+02	1.26204359e+12
2.10000000e+02	1.29000040e+12
2.11000000e+02	1.31836932e+12
2.12000000e+02	1.34715063e+12
2.13000000e+02	1.37634445e+12
2.14000000e+02	1.40595075e+12
2.15000000e+02	1.43596937e+12
2.16000000e+02	1.46639996e+12
2.17000000e+02	1.49724208e+12
2.18000000e+02	1.52849509e+12
2.19000000e+02	1.56015823e+12
2.20000000e+02	1.59223059e+12
2.21000000e+02	1.62471112e+12
2.22000000e+02	1.65759862e+12
2.23000000e+02	1.69089173e+12
2.24000000e+02	1.72458899e+12
2.25000000e+02	1.75868877e+12
2.26000000e+02	1.79318931e+12
2.27000000e+02	1.82808873e+12
2.28000000e+02	1.86338499e+12
2.29000000e+02	1.89907595e+12
2.30000000e+02	1.93515934e+12
2.31000000e+02	1.97163275e+12
2.32000000e+02	2.00849366e+12
2.33000000e+02	2.04573946e+12
2.34000000e+02	2.08336738e+12
2.35000000e+02	2.12137459e+12
2.36000000e+02	2.15975812e+12
2.37000000e+02	2.19851494e+12
2.38000000e+02	2.23764188e+12
2.39000000e+02	2.27713572e+12
2.40000000e+02	2.31699314e+12
2.41000000e+02	2.35721075e+12
2.42000000e+02	2.39778507e+12
2.43000000e+02	2.43871256e+12
2.44000000e+02	2.47998963e+12
2.45000000e+02	2.52161262e+12
2.46000000e+02	2.56357782e+12
2.47000000e+02	2.60588148e+12
2.48000000e+02	2.64851981e+12
2.49000000e+02	2.69148899e+12
2.50000000e+02	2.73478518e+12
2.51000000e+02	2.77840449e+12
2.52000000e+02	2.82234307e+12
2.53000000e+02	2.86659701e+12
2.54000000e+02	2.91116244e+12
2.55000000e+02	2.95603548e+12
2.56000000e+02	3.00121226e+12
2.57000000e+02	3.04668894e+12
2.58000000e+02	3.09246170e+12
2.59000000e+02	3.13852676e+12
2.60000000e+02	3.18488037e+12
2.61000000e+02	3.23151885e+12
2.62000000e+02	3.27843855e+12
2.63000000e+02	3.32563589e+12
2.64000000e+02	3.37310736e+12
2.65000000e+02	3.42084951e+12
2.66000000e+02	3.46885898e+12
2.67000000e+02	3.51713251e+12
2.68000000e+02	3.56566690e+12
2.69000000e+02	3.61445907e+12
2.70000000e+02	3.66350603e+12
2.71000000e+02	3.71280492e+12
2.72000000e+02	3.76235297e+12
2.73000000e+02	3.81214754e+12
2.74000000e+02	3.86218612e+12
2.75000000e+02	3.91246633e+12
2.76000000e+02	3.96298590e+12
2.77000000e+02	4.01374272e+12
2.78000000e+02	4.06473483e+12
2.79000000e+02	4.11596040e+12
2.80000000e+02	4.16741774e+12
2.81000000e+02	4.21910535e+12
2.82000000e+02	4.27102184e+12
2.83000000e+02	4.32316601e+12
2.84000000e+02	4.37553681e+12
2.85000000e+02	4.42813335e+12
2.86000000e+02	4.48095490e+12
2.87000000e+02	4.53400092e+12
2.88000000e+02	4.58727100e+12
2.89000000e+02	4.64076492e+12
2.90000000e+02	4.69448262e+12
2.91000000e+02	4.74842420e+12
2.92000000e+02	4.80258993e+12
2.93000000e+02	4.85698026e+12
2.94000000e+02	4.91159577e+12
2.95000000e+02	4.96643723e+12
2.96000000e+02	5.02150555e+12
2.97000000e+02	5.07680181e+12
2.98000000e+02	5.13232723e+12
2.99000000e+02	5.18808319e+12
3.00000000e+02	5.24407120e+12
3.01000000e+02	5.30029292e+12
3.02000000e+02	5.35675015e+12
3.03000000e+02	5.41344481e+12
3.04000000e+02	5.47037895e+12
3.05000000e+02	5.52755474e+12
3.06000000e+02	5.58497445e+12
3.07000000e+02	5.64264046e+12
3.08000000e+02	5.70055526e+12
3.09000000e+02	5.75872141e+12
3.10000000e+02	5.81714156e+12
3.11000000e+02	5.87581844e+12
3.12000000e+02	5.93475481e+12
3.13000000e+02	5.99395353e+12
3.14000000e+02	6.05341747e+12
3.15000000e+02	6.11314954e+12
3.16000000e+02	6.17315269e+12
3.17000000e+02	6.23342985e+12
3.18000000e+02	6.29398397e+12
3.19000000e+02	6.35481800e+12
3.20000000e+02	6.41593484e+12
3.21000000e+02	6.47733738e+12
3.22000000e+02	6.53902843e+12
3.23000000e+02	6.60101078e+12
3.24000000e+02	6.66328711e+12
3.25000000e+02	6.72586003e+12
3.26000000e+02	6.78873205e+12
3.27000000e+02	6.85190554e+12
3.28000000e+02	6.91538278e+12
3.29000000e+02	6.97916588e+12
3.30000000e+02	7.04325679e+12
3.31000000e+02	7.10765730e+12
3.32000000e+02	7.17236900e+12
3.33000000e+02	7.23739328e+12
3.34000000e+02	7.30273132e+12
3.35000000e+02	7.36838405e+12
3.36000000e+02	7.43435216e+12
3.37000000e+02	7.50063607e+12
3.38000000e+02	7.56723592e+12
3.39000000e+02	7.63415156e+12
3.40000000e+02	7.70138252e+12
3.41000000e+02	7.76892799e+12
3.42000000e+02	7.83678683e+12
3.43000000e+02	7.90495754e+12
3.44000000e+02	7.97343822e+12
3.45000000e+02	8.04222662e+12
3.46000000e+02	8.11132002e+12
3.47000000e+02	8.18071533e+12
3.48000000e+02	8.25040898e+12
3.49000000e+02	8.32039696e+12
3.50000000e+02	8.39067477e+12
3.51000000e+02	8.46123745e+12
3.52000000e+02	8.53207950e+12
3.53000000e+02	8.60319491e+12
3.54000000e+02	8.67457713e+12
3.55000000e+02	8.74621906e+12
3.56000000e+02	8.81811303e+12
3.57000000e+02	8.89025078e+12
3.58000000e+02	8.96262346e+12
3.59000000e+02	9.03522157e+12
3.60000000e+02	9.10803503e+12
3.61000000e+02	9.18105308e+12
3.62000000e+02	9.25426429e+12
3.63000000e+02	9.32765659e+12
3.64000000e+02	9.40121719e+12
3.65000000e+02	9.47493261e+12
3.66000000e+02	9.54878864e+12
3.67000000e+02	9.62277034e+12
3.68000000e+02	9.69686204e+12
3.69000000e+02	9.77104729e+12
3.70000000e+02	9.84530889e+12
3.71000000e+02	9.91962882e+12
3.72000000e+02	9.99398830e+12
3.73000000e+02	1.00683677e+13
3.74000000e+02	1.01427466e+13
3.75000000e+02	1.02171038e+13
3.76000000e+02	1.02914172e+13
3.77000000e+02	1.03656638e+13
3.78000000e+02	1.04398197e+13
3.79000000e+02	1.05138604e+13
3.80000000e+02	1.05877602e+13
3.81000000e+02	1.06614926e+13
3.82000000e+02	1.07350304e+13
3.83000000e+02	1.08083453e+13
3.84000000e+02	1.08814081e+13
3.85000000e+02	1.09541888e+13
3.86000000e+02	1.10266562e+13
3.87000000e+02	1.10987786e+13
3.88000000e+02	1.11705231e+13
3.89000000e+02	1.12418559e+13
3.90000000e+02	1.13127423e+13
3.91000000e+02	1.13831466e+13
3.92000000e+02	1.14530324e+13
3.93000000e+02	1.15223620e+13
3.94000000e+02	1.15910973e+13
3.95000000e+02	1.16591987e+13
3.96000000e+02	1.17266260e+13
3.97000000e+02	1.17933382e+13
3.98000000e+02	1.18592932e+13
3.99000000e+02	1.19244481e+13
4.00000000e+02	1.19887590e+13
4.01000000e+02	1.20521814e+13
4.02000000e+02	1.21146697e+13
4.03000000e+02	1.21761775e+13
4.04000000e+02	1.22366578e+13
4.05000000e+02	1.22960626e+13
4.06000000e+02	1.23543432e+13
4.07000000e+02	1.24114501e+13
4.08000000e+02	1.24673332e+13
4.09000000e+02	1.25219415e+13
4.10000000e+02	1.25752236e+13
4.11000000e+02	1.26271273e+13
4.12000000e+02	1.26775998e+13
4.13000000e+02	1.27265878e+13
4.14000000e+02	1.27740375e+13
4.15000000e+02	1.28198945e+13
4.16000000e+02	1.28641041e+13
4.17000000e+02	1.29066111e+13
4.18000000e+02	1.29473600e+13
4.19000000e+02	1.29862950e+13
4.20000000e+02	1.30233601e+13
4.21000000e+02	1.30584990e+13
4.22000000e+02	1.30916555e+13
4.23000000e+02	1.31227731e+13
4.24000000e+02	1.31517954e+13
4.25000000e+02	1.31786661e+13
4.26000000e+02	1.32033290e+13
4.27000000e+02	1.32257281e+13
4.28000000e+02	1.32458077e+13
4.29000000e+02	1.32635124e+13
4.30000000e+02	1.32787873e+13
4.31000000e+02	1.32915781e+13
4.32000000e+02	1.33018311e+13
4.33000000e+02	1.33094930e+13
4.34000000e+02	1.33145117e+13
4.35000000e+02	1.33168358e+13
4.36000000e+02	1.33164149e+13
4.37000000e+02	1.33131996e+13
4.38000000e+02	1.33071419e+13
4.39000000e+02	1.32981949e+13
4.40000000e+02	1.32863131e+13
4.41000000e+02	1.32714527e+13
4.42000000e+02	1.32535713e+13
4.43000000e+02	1.32326284e+13
4.44000000e+02	1.32085854e+13
4.45000000e+02	1.31814054e+13
4.46000000e+02	1.31510540e+13
4.47000000e+02	1.31174988e+13
4.48000000e+02	1.30807097e+13
4.49000000e+02	1.30406593e+13
4.50000000e+02	1.29973227e+13
4.51000000e+02	1.29506778e+13
4.52000000e+02	1.29007055e+13
4.53000000e+02	1.28473895e+13
4.54000000e+02	1.27907169e+13
4.55000000e+02	1.27306780e+13
4.56000000e+02	1.26672667e+13
4.57000000e+02	1.26004804e+13
4.58000000e+02	1.25303203e+13
4.59000000e+02	1.24567914e+13
4.60000000e+02	1.23799029e+13
4.61000000e+02	1.22996682e+13
4.62000000e+02	1.22161047e+13
4.63000000e+02	1.21292348e+13
4.64000000e+02	1.20390850e+13
4.65000000e+02	1.19456869e+13
4.66000000e+02	1.18490767e+13
4.67000000e+02	1.17492957e+13
4.68000000e+02	1.16463903e+13
4.69000000e+02	1.15404121e+13
4.70000000e+02	1.14314181e+13
4.71000000e+02	1.13194704e+13
4.72000000e+02	1.12046370e+13
4.73000000e+02	1.10869910e+13
4.74000000e+02	1.09666114e+13
4.75000000e+02	1.08435826e+13
4.76000000e+02	1.07179948e+13
4.77000000e+02	1.05899438e+13
4.78000000e+02	1.04595307e+13
4.79000000e+02	1.03268625e+13
4.80000000e+02	1.01920515e+13
4.81000000e+02	1.00552153e+13
4.82000000e+02	9.91647669e+12
4.83000000e+02	9.77596358e+12
4.84000000e+02	9.63380863e+12
4.85000000e+02	9.49014910e+12
4.86000000e+02	9.34512656e+12
4.87000000e+02	9.19888658e+12
4.88000000e+02	9.05157837e+12
4.89000000e+02	8.90335438e+12
4.90000000e+02	8.75436994e+12
4.91000000e+02	8.60478271e+12
4.92000000e+02	8.45475227e+12
4.93000000e+02	8.30443952e+12
4.94000000e+02	8.15400618e+12
4.95000000e+02	8.00361418e+12
4.96000000e+02	7.85342504e+12
4.97000000e+02	7.70359927e+12
4.98000000e+02	7.55429571e+12
4.99000000e+02	7.40567089e+12
5.00000000e+02	7.25787836e+12
5.01000000e+02	7.11106807e+12
5.02000000e+02	6.96538570e+12
5.03000000e+02	6.82097207e+12
5.04000000e+02	6.67796252e+12
5.05000000e+02	6.53648634e+12
5.06000000e+02	6.39666626e+12
5.07000000e+02	6.25861797e+12
5.08000000e+02	6.12244966e+12
5.09000000e+02	5.98826166e+12
5.10000000e+02	5.85614609e+12
5.11000000e+02	5.72618664e+12
5.12000000e+02	5.59845837e+12
5.13000000e+02	5.47302755e+12
5.14000000e+02	5.34995163e+12
5.15000000e+02	5.22927926e+12
5.16000000e+02	5.11105030e+12
5.17000000e+02	4.99529605e+12
5.18000000e+02	4.88203936e+12
5.19000000e+02	4.77129493e+12
5.20000000e+02	4.66306958e+12
5.21000000e+02	4.55736260e+12
5.22000000e+02	4.45416618e+12
5.23000000e+02	4.35346574e+12
5.24000000e+02	4.25524045e+12
5.25000000e+02	4.15946364e+12
5.26000000e+02	4.06610330e+12
5.27000000e+02	3.97512256e+12
5.28000000e+02	3.88648017e+12
5.29000000e+02	3.80013098e+12
5.30000000e+02	3.71602641e+12
5.31000000e+02	3.63411494e+12
5.32000000e+02	3.55434250e+12
5.33000000e+02	3.47665295e+12
5.34000000e+02	3.40098847e+12
5.35000000e+02	3.32728991e+12
5.36000000e+02	3.25549720e+12
5.37000000e+02	3.18554962e+12
5.38000000e+02	3.11738619e+12
5.39000000e+02	3.05094584e+12
5.40000000e+02	2.98616777e+12
5.41000000e+02	2.92299161e+12
5.42000000e+02	2.86135764e+12
5.43000000e+02	2.80120699e+12
5.44000000e+02	2.74248178e+12
5.45000000e+02	2.68512527e+12
5.46000000e+02	2.62908195e+12
5.47000000e+02	2.57429770e+12
5.48000000e+02	2.52071981e+12
5.49000000e+02	2.46829711e+12
5.50000000e+02	2.41697997e+12
5.51000000e+02	2.36672040e+12
5.52000000e+02	2.31747206e+12
5.53000000e+02	2.26919029e+12
5.54000000e+02	2.22183210e+12
5.55000000e+02	2.17535626e+12
5.56000000e+02	2.12972321e+12
5.57000000e+02	2.08489515e+12
5.58000000e+02	2.04083598e+12
5.59000000e+02	1.99751129e+12
5.60000000e+02	1.95488841e+12
5.61000000e+02	1.91293634e+12
5.62000000e+02	1.87162577e+12
5.63000000e+02	1.83092906e+12
5.64000000e+02	1.79082021e+12
5.65000000e+02	1.75127489e+12
5.66000000e+02	1.71227036e+12
5.67000000e+02	1.67378550e+12
5.68000000e+02	1.63580077e+12
5.69000000e+02	1.59829823e+12
5.70000000e+02	1.56126146e+12
5.71000000e+02	1.52467557e+12
5.72000000e+02	1.48852719e+12
5.73000000e+02	1.45280443e+12
5.74000000e+02	1.41749686e+12
5.75000000e+02	1.38259551e+12
5.76000000e+02	1.34809280e+12
5.77000000e+02	1.31398250e+12
5.78000000e+02	1.28025967e+12
5.79000000e+02	1.24692079e+12
5.80000000e+02	1.21396359e+12
5.81000000e+02	1.18138684e+12
5.82000000e+02	1.14919042e+12
5.83000000e+02	1.11737594e+12
5.84000000e+02	1.08594494e+12
5.85000000e+02	1.05490090e+12
5.86000000e+02	1.02424802e+12
5.87000000e+02	9.93990803e+11
5.88000000e+02	9.64135276e+11
5.89000000e+02	9.34687801e+11
5.90000000e+02	9.05654899e+11
5.91000000e+02	8.77044607e+11
5.92000000e+02	8.48864500e+11
5.93000000e+02	8.21122776e+11
5.94000000e+02	7.93828299e+11
5.95000000e+02	7.66989271e+11
5.96000000e+02	7.40614752e+11
5.97000000e+02	7.14713431e+11
5.98000000e+02	6.89293710e+11
5.99000000e+02	6.64364327e+11
6.00000000e+02	6.39933216e+11
6.01000000e+02	6.16008189e+11
6.02000000e+02	5.92596770e+11
6.03000000e+02	5.69705592e+11
6.04000000e+02	5.47341101e+11
6.05000000e+02	5.25508951e+11
6.06000000e+02	5.04213999e+11
6.07000000e+02	4.83460639e+11
6.08000000e+02	4.63252287e+11
6.09000000e+02	4.43591548e+11
6.10000000e+02	4.24480361e+11
6.11000000e+02	4.05919620e+11
6.12000000e+02	3.87909408e+11
6.13000000e+02	3.70449041e+11
6.14000000e+02	3.53536794e+11
6.15000000e+02	3.37170169e+11
6.16000000e+02	3.21345834e+11
6.17000000e+02	3.06059499e+11
6.18000000e+02	2.91306184e+11
6.19000000e+02	2.77080087e+11
6.20000000e+02	2.63374602e+11
6.21000000e+02	2.50182485e+11
6.22000000e+02	2.37495767e+11
6.23000000e+02	2.25305838e+11
6.24000000e+02	2.13603562e+11
6.25000000e+02	2.02379204e+11
6.26000000e+02	1.91622556e+11
6.27000000e+02	1.81322996e+11
6.28000000e+02	1.71469474e+11
6.29000000e+02	1.62050624e+11
6.30000000e+02	1.53054793e+11
6.31000000e+02	1.44470062e+11
6.32000000e+02	1.36284350e+11
6.33000000e+02	1.28485412e+11
6.34000000e+02	1.21060899e+11
6.35000000e+02	1.13998417e+11
6.36000000e+02	1.07285540e+11
6.37000000e+02	1.00909869e+11
6.38000000e+02	9.48590669e+10
6.39000000e+02	8.91208734e+10
6.40000000e+02	8.36831648e+10
6.41000000e+02	7.85339596e+10
6.42000000e+02	7.36614529e+10
6.43000000e+02	6.90540472e+10
6.44000000e+02	6.47003584e+10
6.45000000e+02	6.05892491e+10
6.46000000e+02	5.67098374e+10
6.47000000e+02	5.30515104e+10
6.48000000e+02	4.96039430e+10
6.49000000e+02	4.63570989e+10
6.50000000e+02	4.33012458e+10
6.51000000e+02	4.04269588e+10
6.52000000e+02	3.77251227e+10
6.53000000e+02	3.51869397e+10
6.54000000e+02	3.28039257e+10
6.55000000e+02	3.05679136e+10
6.56000000e+02	2.84710508e+10
6.57000000e+02	2.65057961e+10
6.58000000e+02	2.46649180e+10
6.59000000e+02	2.29414881e+10
