# Profil de FluxX au temps 1.000000000000012e-11 
# simu : /Volumes/MERCURE/JOBS/Zeq1_tanh_50mic_5e20_B0_20ps/GNU/FluxX@y-c.set
# col 0 : abscisse (um)
# col 1 : FluxX (W/cm2)
0.00000000e+00	0.00000000e+00
1.00000000e+00	2.61904939e+09
2.00000000e+00	5.23924165e+09
3.00000000e+00	7.86466584e+09
4.00000000e+00	1.04943409e+10
5.00000000e+00	1.31311418e+10
6.00000000e+00	1.57769272e+10
7.00000000e+00	1.84335160e+10
8.00000000e+00	2.11027161e+10
9.00000000e+00	2.37863325e+10
1.00000000e+01	2.64861705e+10
1.10000000e+01	2.92040362e+10
1.20000000e+01	3.19417372e+10
1.30000000e+01	3.47010820e+10
1.40000000e+01	3.74838809e+10
1.50000000e+01	4.02919451e+10
1.60000000e+01	4.31270876e+10
1.70000000e+01	4.59911231e+10
1.80000000e+01	4.88858676e+10
1.90000000e+01	5.18131389e+10
2.00000000e+01	5.47747564e+10
2.10000000e+01	5.77725414e+10
2.20000000e+01	6.08083166e+10
2.30000000e+01	6.38839067e+10
2.40000000e+01	6.70011379e+10
2.50000000e+01	7.01618382e+10
2.60000000e+01	7.33678371e+10
2.70000000e+01	7.66209658e+10
2.80000000e+01	7.99230568e+10
2.90000000e+01	8.32759444e+10
3.00000000e+01	8.66814637e+10
3.10000000e+01	9.01414514e+10
3.20000000e+01	9.36577453e+10
3.30000000e+01	9.72321837e+10
3.40000000e+01	1.00866606e+11
3.50000000e+01	1.04562853e+11
3.60000000e+01	1.08322763e+11
3.70000000e+01	1.12148179e+11
3.80000000e+01	1.16040940e+11
3.90000000e+01	1.20002887e+11
4.00000000e+01	1.24035858e+11
4.10000000e+01	1.28141694e+11
4.20000000e+01	1.32322231e+11
4.30000000e+01	1.36579306e+11
4.40000000e+01	1.40914753e+11
4.50000000e+01	1.45330405e+11
4.60000000e+01	1.49828090e+11
4.70000000e+01	1.54409635e+11
4.80000000e+01	1.59076864e+11
4.90000000e+01	1.63831596e+11
5.00000000e+01	1.68675647e+11
5.10000000e+01	1.73610826e+11
5.20000000e+01	1.78638938e+11
5.30000000e+01	1.83761784e+11
5.40000000e+01	1.88981156e+11
5.50000000e+01	1.94298840e+11
5.60000000e+01	1.99716615e+11
5.70000000e+01	2.05236251e+11
5.80000000e+01	2.10859512e+11
5.90000000e+01	2.16588149e+11
6.00000000e+01	2.22423906e+11
6.10000000e+01	2.28368515e+11
6.20000000e+01	2.34423697e+11
6.30000000e+01	2.40591162e+11
6.40000000e+01	2.46872606e+11
6.50000000e+01	2.53269712e+11
6.60000000e+01	2.59784151e+11
6.70000000e+01	2.66417576e+11
6.80000000e+01	2.73171626e+11
6.90000000e+01	2.80047925e+11
7.00000000e+01	2.87048077e+11
7.10000000e+01	2.94173671e+11
7.20000000e+01	3.01426276e+11
7.30000000e+01	3.08807441e+11
7.40000000e+01	3.16318696e+11
7.50000000e+01	3.23961549e+11
7.60000000e+01	3.31737488e+11
7.70000000e+01	3.39647975e+11
7.80000000e+01	3.47694452e+11
7.90000000e+01	3.55878334e+11
8.00000000e+01	3.64201012e+11
8.10000000e+01	3.72663852e+11
8.20000000e+01	3.81268192e+11
8.30000000e+01	3.90015343e+11
8.40000000e+01	3.98906587e+11
8.50000000e+01	4.07943177e+11
8.60000000e+01	4.17126338e+11
8.70000000e+01	4.26457261e+11
8.80000000e+01	4.35937107e+11
8.90000000e+01	4.45567006e+11
9.00000000e+01	4.55348053e+11
9.10000000e+01	4.65281310e+11
9.20000000e+01	4.75367805e+11
9.30000000e+01	4.85608530e+11
9.40000000e+01	4.96004442e+11
9.50000000e+01	5.06556461e+11
9.60000000e+01	5.17265468e+11
9.70000000e+01	5.28132310e+11
9.80000000e+01	5.39157792e+11
9.90000000e+01	5.50342682e+11
1.00000000e+02	5.61687708e+11
1.01000000e+02	5.73193556e+11
1.02000000e+02	5.84860873e+11
1.03000000e+02	5.96690266e+11
1.04000000e+02	6.08682298e+11
1.05000000e+02	6.20837491e+11
1.06000000e+02	6.33156324e+11
1.07000000e+02	6.45639234e+11
1.08000000e+02	6.58286614e+11
1.09000000e+02	6.71098813e+11
1.10000000e+02	6.84076139e+11
1.11000000e+02	6.97218852e+11
1.12000000e+02	7.10527171e+11
1.13000000e+02	7.24001270e+11
1.14000000e+02	7.37641277e+11
1.15000000e+02	7.51447276e+11
1.16000000e+02	7.65419308e+11
1.17000000e+02	7.79557367e+11
1.18000000e+02	7.93861405e+11
1.19000000e+02	8.08331328e+11
1.20000000e+02	8.22966997e+11
1.21000000e+02	8.37768230e+11
1.22000000e+02	8.52734801e+11
1.23000000e+02	8.67866440e+11
1.24000000e+02	8.83162832e+11
1.25000000e+02	8.98623623e+11
1.26000000e+02	9.14248412e+11
1.27000000e+02	9.30036759e+11
1.28000000e+02	9.45988179e+11
1.29000000e+02	9.62102149e+11
1.30000000e+02	9.78378104e+11
1.31000000e+02	9.94815439e+11
1.32000000e+02	1.01141351e+12
1.33000000e+02	1.02817163e+12
1.34000000e+02	1.04508909e+12
1.35000000e+02	1.06216512e+12
1.36000000e+02	1.07939892e+12
1.37000000e+02	1.09678969e+12
1.38000000e+02	1.11433653e+12
1.39000000e+02	1.13203857e+12
1.40000000e+02	1.14989487e+12
1.41000000e+02	1.16790447e+12
1.42000000e+02	1.18606639e+12
1.43000000e+02	1.20437959e+12
1.44000000e+02	1.22284304e+12
1.45000000e+02	1.24145566e+12
1.46000000e+02	1.26021636e+12
1.47000000e+02	1.27912401e+12
1.48000000e+02	1.29817746e+12
1.49000000e+02	1.31737556e+12
1.50000000e+02	1.33671711e+12
1.51000000e+02	1.35620092e+12
1.52000000e+02	1.37582576e+12
1.53000000e+02	1.39559040e+12
1.54000000e+02	1.41549360e+12
1.55000000e+02	1.43553409e+12
1.56000000e+02	1.45571060e+12
1.57000000e+02	1.47602185e+12
1.58000000e+02	1.49646657e+12
1.59000000e+02	1.51704345e+12
1.60000000e+02	1.53775122e+12
1.61000000e+02	1.55858856e+12
1.62000000e+02	1.57955420e+12
1.63000000e+02	1.60064683e+12
1.64000000e+02	1.62186517e+12
1.65000000e+02	1.64320793e+12
1.66000000e+02	1.66467385e+12
1.67000000e+02	1.68626165e+12
1.68000000e+02	1.70797009e+12
1.69000000e+02	1.72979791e+12
1.70000000e+02	1.75174390e+12
1.71000000e+02	1.77380685e+12
1.72000000e+02	1.79598556e+12
1.73000000e+02	1.81827887e+12
1.74000000e+02	1.84068563e+12
1.75000000e+02	1.86320472e+12
1.76000000e+02	1.88583504e+12
1.77000000e+02	1.90857553e+12
1.78000000e+02	1.93142514e+12
1.79000000e+02	1.95438288e+12
1.80000000e+02	1.97744776e+12
1.81000000e+02	2.00061885e+12
1.82000000e+02	2.02389526e+12
1.83000000e+02	2.04727611e+12
1.84000000e+02	2.07076059e+12
1.85000000e+02	2.09434793e+12
1.86000000e+02	2.11803738e+12
1.87000000e+02	2.14182826e+12
1.88000000e+02	2.16571993e+12
1.89000000e+02	2.18971178e+12
1.90000000e+02	2.21380329e+12
1.91000000e+02	2.23799396e+12
1.92000000e+02	2.26228334e+12
1.93000000e+02	2.28667106e+12
1.94000000e+02	2.31115679e+12
1.95000000e+02	2.33574025e+12
1.96000000e+02	2.36042123e+12
1.97000000e+02	2.38519958e+12
1.98000000e+02	2.41007520e+12
1.99000000e+02	2.43504807e+12
2.00000000e+02	2.46011821e+12
2.01000000e+02	2.48528571e+12
2.02000000e+02	2.51055075e+12
2.03000000e+02	2.53591353e+12
2.04000000e+02	2.56137435e+12
2.05000000e+02	2.58693356e+12
2.06000000e+02	2.61259160e+12
2.07000000e+02	2.63834895e+12
2.08000000e+02	2.66420616e+12
2.09000000e+02	2.69016388e+12
2.10000000e+02	2.71622280e+12
2.11000000e+02	2.74238369e+12
2.12000000e+02	2.76864738e+12
2.13000000e+02	2.79501478e+12
2.14000000e+02	2.82148687e+12
2.15000000e+02	2.84806469e+12
2.16000000e+02	2.87474937e+12
2.17000000e+02	2.90154209e+12
2.18000000e+02	2.92844411e+12
2.19000000e+02	2.95545674e+12
2.20000000e+02	2.98258140e+12
2.21000000e+02	3.00981953e+12
2.22000000e+02	3.03717268e+12
2.23000000e+02	3.06464244e+12
2.24000000e+02	3.09223047e+12
2.25000000e+02	3.11993851e+12
2.26000000e+02	3.14776835e+12
2.27000000e+02	3.17572186e+12
2.28000000e+02	3.20380095e+12
2.29000000e+02	3.23200762e+12
2.30000000e+02	3.26034392e+12
2.31000000e+02	3.28881196e+12
2.32000000e+02	3.31741390e+12
2.33000000e+02	3.34615196e+12
2.34000000e+02	3.37502844e+12
2.35000000e+02	3.40404568e+12
2.36000000e+02	3.43320606e+12
2.37000000e+02	3.46251202e+12
2.38000000e+02	3.49196608e+12
2.39000000e+02	3.52157076e+12
2.40000000e+02	3.55132867e+12
2.41000000e+02	3.58124244e+12
2.42000000e+02	3.61131476e+12
2.43000000e+02	3.64154835e+12
2.44000000e+02	3.67194598e+12
2.45000000e+02	3.70251045e+12
2.46000000e+02	3.73324462e+12
2.47000000e+02	3.76415135e+12
2.48000000e+02	3.79523355e+12
2.49000000e+02	3.82649418e+12
2.50000000e+02	3.85793620e+12
2.51000000e+02	3.88956261e+12
2.52000000e+02	3.92137644e+12
2.53000000e+02	3.95338072e+12
2.54000000e+02	3.98557853e+12
2.55000000e+02	4.01797296e+12
2.56000000e+02	4.05056710e+12
2.57000000e+02	4.08336408e+12
2.58000000e+02	4.11636701e+12
2.59000000e+02	4.14957905e+12
2.60000000e+02	4.18300334e+12
2.61000000e+02	4.21664302e+12
2.62000000e+02	4.25050125e+12
2.63000000e+02	4.28458119e+12
2.64000000e+02	4.31888599e+12
2.65000000e+02	4.35341881e+12
2.66000000e+02	4.38818278e+12
2.67000000e+02	4.42318105e+12
2.68000000e+02	4.45841673e+12
2.69000000e+02	4.49389294e+12
2.70000000e+02	4.52961278e+12
2.71000000e+02	4.56557932e+12
2.72000000e+02	4.60179564e+12
2.73000000e+02	4.63826475e+12
2.74000000e+02	4.67498969e+12
2.75000000e+02	4.71197342e+12
2.76000000e+02	4.74921892e+12
2.77000000e+02	4.78672910e+12
2.78000000e+02	4.82450686e+12
2.79000000e+02	4.86255506e+12
2.80000000e+02	4.90087650e+12
2.81000000e+02	4.93947398e+12
2.82000000e+02	4.97835022e+12
2.83000000e+02	5.01750790e+12
2.84000000e+02	5.05694967e+12
2.85000000e+02	5.09667813e+12
2.86000000e+02	5.13669580e+12
2.87000000e+02	5.17700516e+12
2.88000000e+02	5.21760865e+12
2.89000000e+02	5.25850863e+12
2.90000000e+02	5.29970740e+12
2.91000000e+02	5.34120719e+12
2.92000000e+02	5.38301018e+12
2.93000000e+02	5.42511847e+12
2.94000000e+02	5.46753409e+12
2.95000000e+02	5.51025898e+12
2.96000000e+02	5.55329503e+12
2.97000000e+02	5.59664403e+12
2.98000000e+02	5.64030769e+12
2.99000000e+02	5.68428764e+12
3.00000000e+02	5.72858542e+12
3.01000000e+02	5.77320248e+12
3.02000000e+02	5.81814016e+12
3.03000000e+02	5.86339973e+12
3.04000000e+02	5.90898233e+12
3.05000000e+02	5.95488904e+12
3.06000000e+02	6.00112079e+12
3.07000000e+02	6.04767842e+12
3.08000000e+02	6.09456267e+12
3.09000000e+02	6.14177414e+12
3.10000000e+02	6.18931333e+12
3.11000000e+02	6.23718060e+12
3.12000000e+02	6.28537621e+12
3.13000000e+02	6.33390027e+12
3.14000000e+02	6.38275277e+12
3.15000000e+02	6.43193356e+12
3.16000000e+02	6.48144234e+12
3.17000000e+02	6.53127868e+12
3.18000000e+02	6.58144200e+12
3.19000000e+02	6.63193157e+12
3.20000000e+02	6.68274650e+12
3.21000000e+02	6.73388574e+12
3.22000000e+02	6.78534807e+12
3.23000000e+02	6.83713213e+12
3.24000000e+02	6.88923635e+12
3.25000000e+02	6.94165901e+12
3.26000000e+02	6.99439820e+12
3.27000000e+02	7.04745181e+12
3.28000000e+02	7.10081758e+12
3.29000000e+02	7.15449300e+12
3.30000000e+02	7.20847539e+12
3.31000000e+02	7.26276188e+12
3.32000000e+02	7.31734935e+12
3.33000000e+02	7.37223450e+12
3.34000000e+02	7.42741378e+12
3.35000000e+02	7.48288344e+12
3.36000000e+02	7.53863947e+12
3.37000000e+02	7.59467764e+12
3.38000000e+02	7.65099349e+12
3.39000000e+02	7.70758228e+12
3.40000000e+02	7.76443903e+12
3.41000000e+02	7.82155851e+12
3.42000000e+02	7.87893522e+12
3.43000000e+02	7.93656337e+12
3.44000000e+02	7.99443690e+12
3.45000000e+02	8.05254949e+12
3.46000000e+02	8.11089449e+12
3.47000000e+02	8.16946499e+12
3.48000000e+02	8.22825375e+12
3.49000000e+02	8.28725323e+12
3.50000000e+02	8.34645559e+12
3.51000000e+02	8.40585263e+12
3.52000000e+02	8.46543586e+12
3.53000000e+02	8.52519644e+12
3.54000000e+02	8.58512519e+12
3.55000000e+02	8.64521258e+12
3.56000000e+02	8.70544873e+12
3.57000000e+02	8.76582340e+12
3.58000000e+02	8.82632597e+12
3.59000000e+02	8.88694547e+12
3.60000000e+02	8.94767053e+12
3.61000000e+02	9.00848941e+12
3.62000000e+02	9.06938996e+12
3.63000000e+02	9.13035966e+12
3.64000000e+02	9.19138555e+12
3.65000000e+02	9.25245429e+12
3.66000000e+02	9.31355210e+12
3.67000000e+02	9.37466479e+12
3.68000000e+02	9.43577775e+12
3.69000000e+02	9.49687593e+12
3.70000000e+02	9.55794382e+12
3.71000000e+02	9.61896550e+12
3.72000000e+02	9.67992457e+12
3.73000000e+02	9.74080420e+12
3.74000000e+02	9.80158709e+12
3.75000000e+02	9.86225548e+12
3.76000000e+02	9.92279113e+12
3.77000000e+02	9.98317534e+12
3.78000000e+02	1.00433889e+13
3.79000000e+02	1.01034122e+13
3.80000000e+02	1.01632251e+13
3.81000000e+02	1.02228070e+13
3.82000000e+02	1.02821366e+13
3.83000000e+02	1.03411925e+13
3.84000000e+02	1.03999525e+13
3.85000000e+02	1.04583941e+13
3.86000000e+02	1.05164941e+13
3.87000000e+02	1.05742289e+13
3.88000000e+02	1.06315745e+13
3.89000000e+02	1.06885063e+13
3.90000000e+02	1.07449991e+13
3.91000000e+02	1.08010275e+13
3.92000000e+02	1.08565654e+13
3.93000000e+02	1.09115861e+13
3.94000000e+02	1.09660627e+13
3.95000000e+02	1.10199676e+13
3.96000000e+02	1.10732728e+13
3.97000000e+02	1.11259498e+13
3.98000000e+02	1.11779696e+13
3.99000000e+02	1.12293028e+13
4.00000000e+02	1.12799194e+13
4.01000000e+02	1.13297892e+13
4.02000000e+02	1.13788813e+13
4.03000000e+02	1.14271645e+13
4.04000000e+02	1.14746071e+13
4.05000000e+02	1.15211770e+13
4.06000000e+02	1.15668418e+13
4.07000000e+02	1.16115684e+13
4.08000000e+02	1.16553237e+13
4.09000000e+02	1.16980739e+13
4.10000000e+02	1.17397851e+13
4.11000000e+02	1.17804229e+13
4.12000000e+02	1.18199526e+13
4.13000000e+02	1.18583391e+13
4.14000000e+02	1.18955473e+13
4.15000000e+02	1.19315415e+13
4.16000000e+02	1.19662858e+13
4.17000000e+02	1.19997442e+13
4.18000000e+02	1.20318805e+13
4.19000000e+02	1.20626581e+13
4.20000000e+02	1.20920403e+13
4.21000000e+02	1.21199905e+13
4.22000000e+02	1.21464716e+13
4.23000000e+02	1.21714467e+13
4.24000000e+02	1.21948787e+13
4.25000000e+02	1.22167305e+13
4.26000000e+02	1.22369648e+13
4.27000000e+02	1.22555448e+13
4.28000000e+02	1.22724332e+13
4.29000000e+02	1.22875932e+13
4.30000000e+02	1.23009880e+13
4.31000000e+02	1.23125807e+13
4.32000000e+02	1.23223351e+13
4.33000000e+02	1.23302148e+13
4.34000000e+02	1.23361839e+13
4.35000000e+02	1.23402068e+13
4.36000000e+02	1.23422481e+13
4.37000000e+02	1.23422730e+13
4.38000000e+02	1.23402471e+13
4.39000000e+02	1.23361364e+13
4.40000000e+02	1.23299076e+13
4.41000000e+02	1.23215278e+13
4.42000000e+02	1.23109649e+13
4.43000000e+02	1.22981875e+13
4.44000000e+02	1.22831649e+13
4.45000000e+02	1.22658672e+13
4.46000000e+02	1.22462655e+13
4.47000000e+02	1.22243315e+13
4.48000000e+02	1.22000384e+13
4.49000000e+02	1.21733600e+13
4.50000000e+02	1.21442715e+13
4.51000000e+02	1.21127492e+13
4.52000000e+02	1.20787707e+13
4.53000000e+02	1.20423148e+13
4.54000000e+02	1.20033619e+13
4.55000000e+02	1.19618939e+13
4.56000000e+02	1.19178940e+13
4.57000000e+02	1.18713473e+13
4.58000000e+02	1.18222406e+13
4.59000000e+02	1.17705625e+13
4.60000000e+02	1.17163035e+13
4.61000000e+02	1.16594561e+13
4.62000000e+02	1.16000147e+13
4.63000000e+02	1.15379764e+13
4.64000000e+02	1.14733400e+13
4.65000000e+02	1.14061070e+13
4.66000000e+02	1.13362815e+13
4.67000000e+02	1.12638698e+13
4.68000000e+02	1.11888811e+13
4.69000000e+02	1.11113276e+13
4.70000000e+02	1.10312241e+13
4.71000000e+02	1.09485885e+13
4.72000000e+02	1.08634418e+13
4.73000000e+02	1.07758083e+13
4.74000000e+02	1.06857156e+13
4.75000000e+02	1.05931947e+13
4.76000000e+02	1.04982802e+13
4.77000000e+02	1.04010101e+13
4.78000000e+02	1.03014265e+13
4.79000000e+02	1.01995751e+13
4.80000000e+02	1.00955056e+13
4.81000000e+02	9.98927144e+12
4.82000000e+02	9.88093049e+12
4.83000000e+02	9.77054452e+12
4.84000000e+02	9.65817952e+12
4.85000000e+02	9.54390569e+12
4.86000000e+02	9.42779747e+12
4.87000000e+02	9.30993357e+12
4.88000000e+02	9.19039692e+12
4.89000000e+02	9.06927470e+12
4.90000000e+02	8.94665827e+12
4.91000000e+02	8.82264307e+12
4.92000000e+02	8.69732862e+12
4.93000000e+02	8.57081831e+12
4.94000000e+02	8.44321932e+12
4.95000000e+02	8.31464245e+12
4.96000000e+02	8.18520188e+12
4.97000000e+02	8.05501498e+12
4.98000000e+02	7.92420203e+12
4.99000000e+02	7.79288597e+12
5.00000000e+02	7.66119200e+12
5.01000000e+02	7.52924731e+12
5.02000000e+02	7.39718062e+12
5.03000000e+02	7.26512184e+12
5.04000000e+02	7.13320156e+12
5.05000000e+02	7.00155062e+12
5.06000000e+02	6.87029964e+12
5.07000000e+02	6.73957844e+12
5.08000000e+02	6.60951561e+12
5.09000000e+02	6.48023789e+12
5.10000000e+02	6.35186969e+12
5.11000000e+02	6.22453252e+12
5.12000000e+02	6.09834448e+12
5.13000000e+02	5.97341973e+12
5.14000000e+02	5.84986796e+12
5.15000000e+02	5.72779395e+12
5.16000000e+02	5.60729712e+12
5.17000000e+02	5.48847108e+12
5.18000000e+02	5.37140329e+12
5.19000000e+02	5.25617472e+12
5.20000000e+02	5.14285959e+12
5.21000000e+02	5.03152513e+12
5.22000000e+02	4.92223143e+12
5.23000000e+02	4.81503130e+12
5.24000000e+02	4.70997028e+12
5.25000000e+02	4.60708656e+12
5.26000000e+02	4.50641114e+12
5.27000000e+02	4.40796786e+12
5.28000000e+02	4.31177365e+12
5.29000000e+02	4.21783868e+12
5.30000000e+02	4.12616665e+12
5.31000000e+02	4.03675511e+12
5.32000000e+02	3.94959573e+12
5.33000000e+02	3.86467474e+12
5.34000000e+02	3.78197323e+12
5.35000000e+02	3.70146761e+12
5.36000000e+02	3.62312996e+12
5.37000000e+02	3.54692851e+12
5.38000000e+02	3.47282797e+12
5.39000000e+02	3.40079000e+12
5.40000000e+02	3.33077360e+12
5.41000000e+02	3.26273546e+12
5.42000000e+02	3.19663037e+12
5.43000000e+02	3.13241154e+12
5.44000000e+02	3.07003098e+12
5.45000000e+02	3.00943974e+12
5.46000000e+02	2.95058828e+12
5.47000000e+02	2.89342667e+12
5.48000000e+02	2.83790487e+12
5.49000000e+02	2.78397295e+12
5.50000000e+02	2.73158125e+12
5.51000000e+02	2.68068059e+12
5.52000000e+02	2.63122242e+12
5.53000000e+02	2.58315893e+12
5.54000000e+02	2.53644319e+12
5.55000000e+02	2.49102923e+12
5.56000000e+02	2.44687212e+12
5.57000000e+02	2.40392804e+12
5.58000000e+02	2.36215433e+12
5.59000000e+02	2.32150951e+12
5.60000000e+02	2.28195334e+12
5.61000000e+02	2.24344681e+12
5.62000000e+02	2.20595213e+12
5.63000000e+02	2.16943280e+12
5.64000000e+02	2.13385351e+12
5.65000000e+02	2.09918021e+12
5.66000000e+02	2.06538002e+12
5.67000000e+02	2.03242126e+12
5.68000000e+02	2.00027341e+12
5.69000000e+02	1.96890705e+12
5.70000000e+02	1.93829390e+12
5.71000000e+02	1.90840669e+12
5.72000000e+02	1.87921923e+12
5.73000000e+02	1.85070628e+12
5.74000000e+02	1.82284358e+12
5.75000000e+02	1.79560779e+12
5.76000000e+02	1.76897647e+12
5.77000000e+02	1.74292800e+12
5.78000000e+02	1.71744161e+12
5.79000000e+02	1.69249729e+12
5.80000000e+02	1.66807579e+12
5.81000000e+02	1.64415857e+12
5.82000000e+02	1.62072779e+12
5.83000000e+02	1.59776624e+12
5.84000000e+02	1.57525736e+12
5.85000000e+02	1.55318518e+12
5.86000000e+02	1.53153427e+12
5.87000000e+02	1.51028979e+12
5.88000000e+02	1.48943737e+12
5.89000000e+02	1.46896318e+12
5.90000000e+02	1.44885381e+12
5.91000000e+02	1.42909635e+12
5.92000000e+02	1.40967827e+12
5.93000000e+02	1.39058747e+12
5.94000000e+02	1.37181225e+12
5.95000000e+02	1.35334125e+12
5.96000000e+02	1.33516349e+12
5.97000000e+02	1.31726831e+12
5.98000000e+02	1.29964539e+12
5.99000000e+02	1.28228470e+12
6.00000000e+02	1.26517651e+12
6.01000000e+02	1.24831140e+12
6.02000000e+02	1.23168018e+12
6.03000000e+02	1.21527395e+12
6.04000000e+02	1.19908404e+12
6.05000000e+02	1.18310204e+12
6.06000000e+02	1.16731976e+12
6.07000000e+02	1.15172925e+12
6.08000000e+02	1.13632275e+12
6.09000000e+02	1.12109276e+12
6.10000000e+02	1.10603192e+12
6.11000000e+02	1.09113314e+12
6.12000000e+02	1.07638947e+12
6.13000000e+02	1.06179418e+12
6.14000000e+02	1.04734072e+12
6.15000000e+02	1.03302273e+12
6.16000000e+02	1.01883403e+12
6.17000000e+02	1.00476862e+12
6.18000000e+02	9.90820711e+11
6.19000000e+02	9.76984697e+11
6.20000000e+02	9.63255100e+11
6.21000000e+02	9.49626423e+11
6.22000000e+02	9.36093277e+11
6.23000000e+02	9.22651171e+11
6.24000000e+02	9.09295324e+11
6.25000000e+02	8.96021263e+11
6.26000000e+02	8.82824419e+11
6.27000000e+02	8.69700649e+11
6.28000000e+02	8.56645624e+11
6.29000000e+02	8.43655818e+11
6.30000000e+02	8.30727218e+11
6.31000000e+02	8.17856432e+11
6.32000000e+02	8.05040208e+11
6.33000000e+02	7.92275105e+11
6.34000000e+02	7.79558447e+11
6.35000000e+02	7.66887243e+11
6.36000000e+02	7.54258733e+11
6.37000000e+02	7.41670785e+11
6.38000000e+02	7.29120798e+11
6.39000000e+02	7.16606783e+11
6.40000000e+02	7.04126902e+11
6.41000000e+02	6.91679097e+11
6.42000000e+02	6.79262053e+11
6.43000000e+02	6.66874185e+11
6.44000000e+02	6.54514067e+11
6.45000000e+02	6.42180848e+11
6.46000000e+02	6.29873272e+11
6.47000000e+02	6.17590580e+11
6.48000000e+02	6.05332091e+11
6.49000000e+02	5.93097010e+11
6.50000000e+02	5.80885137e+11
6.51000000e+02	5.68695939e+11
6.52000000e+02	5.56529143e+11
6.53000000e+02	5.44384760e+11
6.54000000e+02	5.32262502e+11
6.55000000e+02	5.20162581e+11
6.56000000e+02	5.08085000e+11
6.57000000e+02	4.96029845e+11
6.58000000e+02	4.83997514e+11
6.59000000e+02	4.71988055e+11
