# Profil de FluxX au temps 9.000000000000108e-12 
# simu : /Volumes/MERCURE/JOBS/Zeq1_tanh_50mic_5e20_B0_20ps/GNU/FluxX@y-c.set
# col 0 : abscisse (um)
# col 1 : FluxX (W/cm2)
0.00000000e+00	0.00000000e+00
1.00000000e+00	9.76241270e+08
2.00000000e+00	1.95284951e+09
3.00000000e+00	2.93313853e+09
4.00000000e+00	3.91535315e+09
5.00000000e+00	4.90159571e+09
6.00000000e+00	5.89295345e+09
7.00000000e+00	6.89047659e+09
8.00000000e+00	7.89520705e+09
9.00000000e+00	8.90818704e+09
1.00000000e+01	9.93046276e+09
1.10000000e+01	1.09630856e+10
1.20000000e+01	1.20071126e+10
1.30000000e+01	1.30636075e+10
1.40000000e+01	1.41336405e+10
1.50000000e+01	1.52182898e+10
1.60000000e+01	1.63186411e+10
1.70000000e+01	1.74357890e+10
1.80000000e+01	1.85708369e+10
1.90000000e+01	1.97248980e+10
2.00000000e+01	2.08990955e+10
2.10000000e+01	2.20945632e+10
2.20000000e+01	2.33124459e+10
2.30000000e+01	2.45539000e+10
2.40000000e+01	2.58200941e+10
2.50000000e+01	2.71122092e+10
2.60000000e+01	2.84314390e+10
2.70000000e+01	2.97789910e+10
2.80000000e+01	3.11560862e+10
2.90000000e+01	3.25639600e+10
3.00000000e+01	3.40038625e+10
3.10000000e+01	3.54770586e+10
3.20000000e+01	3.69848288e+10
3.30000000e+01	3.85284694e+10
3.40000000e+01	4.01092926e+10
3.50000000e+01	4.17286274e+10
3.60000000e+01	4.33878195e+10
3.70000000e+01	4.50882315e+10
3.80000000e+01	4.68312438e+10
3.90000000e+01	4.86182541e+10
4.00000000e+01	5.04506783e+10
4.10000000e+01	5.23299506e+10
4.20000000e+01	5.42575233e+10
4.30000000e+01	5.62348677e+10
4.40000000e+01	5.82634739e+10
4.50000000e+01	6.03448508e+10
4.60000000e+01	6.24805267e+10
4.70000000e+01	6.46720492e+10
4.80000000e+01	6.69209854e+10
4.90000000e+01	6.92289219e+10
5.00000000e+01	7.15974649e+10
5.10000000e+01	7.40282404e+10
5.20000000e+01	7.65228941e+10
5.30000000e+01	7.90830914e+10
5.40000000e+01	8.17105173e+10
5.50000000e+01	8.44068769e+10
5.60000000e+01	8.71738945e+10
5.70000000e+01	9.00133141e+10
5.80000000e+01	9.29268993e+10
5.90000000e+01	9.59164328e+10
6.00000000e+01	9.89837166e+10
6.10000000e+01	1.02130571e+11
6.20000000e+01	1.05358837e+11
6.30000000e+01	1.08670371e+11
6.40000000e+01	1.12067051e+11
6.50000000e+01	1.15550770e+11
6.60000000e+01	1.19123440e+11
6.70000000e+01	1.22786990e+11
6.80000000e+01	1.26543367e+11
6.90000000e+01	1.30394532e+11
7.00000000e+01	1.34342464e+11
7.10000000e+01	1.38389156e+11
7.20000000e+01	1.42536618e+11
7.30000000e+01	1.46786871e+11
7.40000000e+01	1.51141955e+11
7.50000000e+01	1.55603918e+11
7.60000000e+01	1.60174823e+11
7.70000000e+01	1.64856747e+11
7.80000000e+01	1.69651773e+11
7.90000000e+01	1.74562000e+11
8.00000000e+01	1.79589533e+11
8.10000000e+01	1.84736489e+11
8.20000000e+01	1.90004990e+11
8.30000000e+01	1.95397167e+11
8.40000000e+01	2.00915158e+11
8.50000000e+01	2.06561105e+11
8.60000000e+01	2.12337156e+11
8.70000000e+01	2.18245462e+11
8.80000000e+01	2.24288176e+11
8.90000000e+01	2.30467453e+11
9.00000000e+01	2.36785450e+11
9.10000000e+01	2.43244320e+11
9.20000000e+01	2.49846218e+11
9.30000000e+01	2.56593294e+11
9.40000000e+01	2.63487695e+11
9.50000000e+01	2.70531562e+11
9.60000000e+01	2.77727030e+11
9.70000000e+01	2.85076228e+11
9.80000000e+01	2.92581274e+11
9.90000000e+01	3.00244277e+11
1.00000000e+02	3.08067333e+11
1.01000000e+02	3.16052529e+11
1.02000000e+02	3.24201935e+11
1.03000000e+02	3.32517606e+11
1.04000000e+02	3.41001580e+11
1.05000000e+02	3.49655880e+11
1.06000000e+02	3.58482506e+11
1.07000000e+02	3.67483439e+11
1.08000000e+02	3.76660637e+11
1.09000000e+02	3.86016036e+11
1.10000000e+02	3.95551545e+11
1.11000000e+02	4.05269047e+11
1.12000000e+02	4.15170400e+11
1.13000000e+02	4.25257430e+11
1.14000000e+02	4.35531932e+11
1.15000000e+02	4.45995671e+11
1.16000000e+02	4.56650378e+11
1.17000000e+02	4.67497749e+11
1.18000000e+02	4.78539444e+11
1.19000000e+02	4.89777085e+11
1.20000000e+02	5.01212256e+11
1.21000000e+02	5.12846501e+11
1.22000000e+02	5.24681321e+11
1.23000000e+02	5.36718176e+11
1.24000000e+02	5.48958481e+11
1.25000000e+02	5.61403605e+11
1.26000000e+02	5.74054872e+11
1.27000000e+02	5.86913557e+11
1.28000000e+02	5.99980886e+11
1.29000000e+02	6.13258036e+11
1.30000000e+02	6.26746132e+11
1.31000000e+02	6.40446247e+11
1.32000000e+02	6.54359400e+11
1.33000000e+02	6.68486556e+11
1.34000000e+02	6.82828626e+11
1.35000000e+02	6.97386463e+11
1.36000000e+02	7.12160864e+11
1.37000000e+02	7.27152567e+11
1.38000000e+02	7.42362252e+11
1.39000000e+02	7.57790540e+11
1.40000000e+02	7.73437993e+11
1.41000000e+02	7.89305108e+11
1.42000000e+02	8.05392327e+11
1.43000000e+02	8.21700024e+11
1.44000000e+02	8.38228516e+11
1.45000000e+02	8.54978054e+11
1.46000000e+02	8.71948827e+11
1.47000000e+02	8.89140963e+11
1.48000000e+02	9.06554524e+11
1.49000000e+02	9.24189509e+11
1.50000000e+02	9.42045854e+11
1.51000000e+02	9.60123433e+11
1.52000000e+02	9.78422054e+11
1.53000000e+02	9.96941464e+11
1.54000000e+02	1.01568134e+12
1.55000000e+02	1.03464132e+12
1.56000000e+02	1.05382094e+12
1.57000000e+02	1.07321971e+12
1.58000000e+02	1.09283706e+12
1.59000000e+02	1.11267236e+12
1.60000000e+02	1.13272494e+12
1.61000000e+02	1.15299404e+12
1.62000000e+02	1.17347886e+12
1.63000000e+02	1.19417854e+12
1.64000000e+02	1.21509217e+12
1.65000000e+02	1.23621876e+12
1.66000000e+02	1.25755730e+12
1.67000000e+02	1.27910671e+12
1.68000000e+02	1.30086584e+12
1.69000000e+02	1.32283352e+12
1.70000000e+02	1.34500852e+12
1.71000000e+02	1.36738957e+12
1.72000000e+02	1.38997532e+12
1.73000000e+02	1.41276442e+12
1.74000000e+02	1.43575546e+12
1.75000000e+02	1.45894699e+12
1.76000000e+02	1.48233750e+12
1.77000000e+02	1.50592549e+12
1.78000000e+02	1.52970938e+12
1.79000000e+02	1.55368757e+12
1.80000000e+02	1.57785846e+12
1.81000000e+02	1.60222038e+12
1.82000000e+02	1.62677165e+12
1.83000000e+02	1.65151056e+12
1.84000000e+02	1.67643541e+12
1.85000000e+02	1.70154443e+12
1.86000000e+02	1.72683587e+12
1.87000000e+02	1.75230796e+12
1.88000000e+02	1.77795890e+12
1.89000000e+02	1.80378691e+12
1.90000000e+02	1.82979019e+12
1.91000000e+02	1.85596692e+12
1.92000000e+02	1.88231530e+12
1.93000000e+02	1.90883353e+12
1.94000000e+02	1.93551980e+12
1.95000000e+02	1.96237233e+12
1.96000000e+02	1.98938934e+12
1.97000000e+02	2.01656904e+12
1.98000000e+02	2.04390970e+12
1.99000000e+02	2.07140957e+12
2.00000000e+02	2.09906694e+12
2.01000000e+02	2.12688011e+12
2.02000000e+02	2.15484744e+12
2.03000000e+02	2.18296728e+12
2.04000000e+02	2.21123803e+12
2.05000000e+02	2.23965813e+12
2.06000000e+02	2.26822606e+12
2.07000000e+02	2.29694032e+12
2.08000000e+02	2.32579947e+12
2.09000000e+02	2.35480213e+12
2.10000000e+02	2.38394693e+12
2.11000000e+02	2.41323260e+12
2.12000000e+02	2.44265788e+12
2.13000000e+02	2.47222159e+12
2.14000000e+02	2.50192262e+12
2.15000000e+02	2.53175989e+12
2.16000000e+02	2.56173241e+12
2.17000000e+02	2.59183925e+12
2.18000000e+02	2.62207955e+12
2.19000000e+02	2.65245251e+12
2.20000000e+02	2.68295742e+12
2.21000000e+02	2.71359364e+12
2.22000000e+02	2.74436059e+12
2.23000000e+02	2.77525779e+12
2.24000000e+02	2.80628484e+12
2.25000000e+02	2.83744142e+12
2.26000000e+02	2.86872728e+12
2.27000000e+02	2.90014228e+12
2.28000000e+02	2.93168635e+12
2.29000000e+02	2.96335951e+12
2.30000000e+02	2.99516188e+12
2.31000000e+02	3.02709367e+12
2.32000000e+02	3.05915516e+12
2.33000000e+02	3.09134676e+12
2.34000000e+02	3.12366895e+12
2.35000000e+02	3.15612231e+12
2.36000000e+02	3.18870751e+12
2.37000000e+02	3.22142532e+12
2.38000000e+02	3.25427662e+12
2.39000000e+02	3.28726236e+12
2.40000000e+02	3.32038360e+12
2.41000000e+02	3.35364151e+12
2.42000000e+02	3.38703733e+12
2.43000000e+02	3.42057241e+12
2.44000000e+02	3.45424821e+12
2.45000000e+02	3.48806625e+12
2.46000000e+02	3.52202818e+12
2.47000000e+02	3.55613573e+12
2.48000000e+02	3.59039071e+12
2.49000000e+02	3.62479505e+12
2.50000000e+02	3.65935074e+12
2.51000000e+02	3.69405989e+12
2.52000000e+02	3.72892467e+12
2.53000000e+02	3.76394736e+12
2.54000000e+02	3.79913031e+12
2.55000000e+02	3.83447597e+12
2.56000000e+02	3.86998685e+12
2.57000000e+02	3.90566556e+12
2.58000000e+02	3.94151477e+12
2.59000000e+02	3.97753723e+12
2.60000000e+02	4.01373579e+12
2.61000000e+02	4.05011332e+12
2.62000000e+02	4.08667281e+12
2.63000000e+02	4.12341728e+12
2.64000000e+02	4.16034982e+12
2.65000000e+02	4.19747360e+12
2.66000000e+02	4.23479182e+12
2.67000000e+02	4.27230776e+12
2.68000000e+02	4.31002472e+12
2.69000000e+02	4.34794607e+12
2.70000000e+02	4.38607523e+12
2.71000000e+02	4.42441565e+12
2.72000000e+02	4.46297081e+12
2.73000000e+02	4.50174424e+12
2.74000000e+02	4.54073949e+12
2.75000000e+02	4.57996014e+12
2.76000000e+02	4.61940981e+12
2.77000000e+02	4.65909210e+12
2.78000000e+02	4.69901067e+12
2.79000000e+02	4.73916917e+12
2.80000000e+02	4.77957125e+12
2.81000000e+02	4.82022058e+12
2.82000000e+02	4.86112083e+12
2.83000000e+02	4.90227565e+12
2.84000000e+02	4.94368869e+12
2.85000000e+02	4.98536360e+12
2.86000000e+02	5.02730400e+12
2.87000000e+02	5.06951349e+12
2.88000000e+02	5.11199564e+12
2.89000000e+02	5.15475401e+12
2.90000000e+02	5.19779211e+12
2.91000000e+02	5.24111341e+12
2.92000000e+02	5.28472134e+12
2.93000000e+02	5.32861930e+12
2.94000000e+02	5.37281062e+12
2.95000000e+02	5.41729857e+12
2.96000000e+02	5.46208638e+12
2.97000000e+02	5.50717719e+12
2.98000000e+02	5.55257411e+12
2.99000000e+02	5.59828013e+12
3.00000000e+02	5.64429818e+12
3.01000000e+02	5.69063113e+12
3.02000000e+02	5.73728173e+12
3.03000000e+02	5.78425266e+12
3.04000000e+02	5.83154648e+12
3.05000000e+02	5.87916568e+12
3.06000000e+02	5.92711261e+12
3.07000000e+02	5.97538954e+12
3.08000000e+02	6.02399860e+12
3.09000000e+02	6.07294181e+12
3.10000000e+02	6.12222108e+12
3.11000000e+02	6.17183817e+12
3.12000000e+02	6.22179470e+12
3.13000000e+02	6.27209218e+12
3.14000000e+02	6.32273194e+12
3.15000000e+02	6.37371519e+12
3.16000000e+02	6.42504297e+12
3.17000000e+02	6.47671617e+12
3.18000000e+02	6.52873549e+12
3.19000000e+02	6.58110150e+12
3.20000000e+02	6.63381457e+12
3.21000000e+02	6.68687489e+12
3.22000000e+02	6.74028246e+12
3.23000000e+02	6.79403712e+12
3.24000000e+02	6.84813848e+12
3.25000000e+02	6.90258596e+12
3.26000000e+02	6.95737877e+12
3.27000000e+02	7.01251591e+12
3.28000000e+02	7.06799616e+12
3.29000000e+02	7.12381808e+12
3.30000000e+02	7.17997999e+12
3.31000000e+02	7.23647997e+12
3.32000000e+02	7.29331588e+12
3.33000000e+02	7.35048531e+12
3.34000000e+02	7.40798560e+12
3.35000000e+02	7.46581383e+12
3.36000000e+02	7.52396681e+12
3.37000000e+02	7.58244108e+12
3.38000000e+02	7.64123290e+12
3.39000000e+02	7.70033823e+12
3.40000000e+02	7.75975276e+12
3.41000000e+02	7.81947185e+12
3.42000000e+02	7.87949058e+12
3.43000000e+02	7.93980368e+12
3.44000000e+02	8.00040560e+12
3.45000000e+02	8.06129043e+12
3.46000000e+02	8.12245193e+12
3.47000000e+02	8.18388352e+12
3.48000000e+02	8.24557827e+12
3.49000000e+02	8.30752890e+12
3.50000000e+02	8.36972773e+12
3.51000000e+02	8.43216675e+12
3.52000000e+02	8.49483754e+12
3.53000000e+02	8.55773129e+12
3.54000000e+02	8.62083881e+12
3.55000000e+02	8.68415050e+12
3.56000000e+02	8.74765634e+12
3.57000000e+02	8.81134590e+12
3.58000000e+02	8.87520831e+12
3.59000000e+02	8.93923227e+12
3.60000000e+02	9.00340605e+12
3.61000000e+02	9.06771744e+12
3.62000000e+02	9.13215380e+12
3.63000000e+02	9.19670201e+12
3.64000000e+02	9.26134847e+12
3.65000000e+02	9.32607910e+12
3.66000000e+02	9.39087935e+12
3.67000000e+02	9.45573416e+12
3.68000000e+02	9.52062795e+12
3.69000000e+02	9.58554465e+12
3.70000000e+02	9.65046767e+12
3.71000000e+02	9.71537989e+12
3.72000000e+02	9.78026365e+12
3.73000000e+02	9.84510078e+12
3.74000000e+02	9.90987253e+12
3.75000000e+02	9.97455963e+12
3.76000000e+02	1.00391422e+13
3.77000000e+02	1.01035999e+13
3.78000000e+02	1.01679118e+13
3.79000000e+02	1.02320562e+13
3.80000000e+02	1.02960111e+13
3.81000000e+02	1.03597538e+13
3.82000000e+02	1.04232610e+13
3.83000000e+02	1.04865089e+13
3.84000000e+02	1.05494729e+13
3.85000000e+02	1.06121281e+13
3.86000000e+02	1.06744488e+13
3.87000000e+02	1.07364087e+13
3.88000000e+02	1.07979810e+13
3.89000000e+02	1.08591382e+13
3.90000000e+02	1.09198524e+13
3.91000000e+02	1.09800949e+13
3.92000000e+02	1.10398365e+13
3.93000000e+02	1.10990473e+13
3.94000000e+02	1.11576969e+13
3.95000000e+02	1.12157544e+13
3.96000000e+02	1.12731881e+13
3.97000000e+02	1.13299659e+13
3.98000000e+02	1.13860550e+13
3.99000000e+02	1.14414222e+13
4.00000000e+02	1.14960335e+13
4.01000000e+02	1.15498547e+13
4.02000000e+02	1.16028506e+13
4.03000000e+02	1.16549859e+13
4.04000000e+02	1.17062245e+13
4.05000000e+02	1.17565299e+13
4.06000000e+02	1.18058651e+13
4.07000000e+02	1.18541927e+13
4.08000000e+02	1.19014747e+13
4.09000000e+02	1.19476727e+13
4.10000000e+02	1.19927478e+13
4.11000000e+02	1.20366609e+13
4.12000000e+02	1.20793723e+13
4.13000000e+02	1.21208421e+13
4.14000000e+02	1.21610297e+13
4.15000000e+02	1.21998947e+13
4.16000000e+02	1.22373960e+13
4.17000000e+02	1.22734924e+13
4.18000000e+02	1.23081424e+13
4.19000000e+02	1.23413043e+13
4.20000000e+02	1.23729362e+13
4.21000000e+02	1.24029961e+13
4.22000000e+02	1.24314418e+13
4.23000000e+02	1.24582311e+13
4.24000000e+02	1.24833216e+13
4.25000000e+02	1.25066710e+13
4.26000000e+02	1.25282371e+13
4.27000000e+02	1.25479776e+13
4.28000000e+02	1.25658505e+13
4.29000000e+02	1.25818137e+13
4.30000000e+02	1.25958256e+13
4.31000000e+02	1.26078445e+13
4.32000000e+02	1.26178293e+13
4.33000000e+02	1.26257391e+13
4.34000000e+02	1.26315335e+13
4.35000000e+02	1.26351723e+13
4.36000000e+02	1.26366161e+13
4.37000000e+02	1.26358259e+13
4.38000000e+02	1.26327634e+13
4.39000000e+02	1.26273909e+13
4.40000000e+02	1.26196715e+13
4.41000000e+02	1.26095690e+13
4.42000000e+02	1.25970484e+13
4.43000000e+02	1.25820753e+13
4.44000000e+02	1.25646164e+13
4.45000000e+02	1.25446396e+13
4.46000000e+02	1.25221138e+13
4.47000000e+02	1.24970093e+13
4.48000000e+02	1.24692977e+13
4.49000000e+02	1.24389519e+13
4.50000000e+02	1.24059463e+13
4.51000000e+02	1.23702569e+13
4.52000000e+02	1.23318615e+13
4.53000000e+02	1.22907395e+13
4.54000000e+02	1.22468720e+13
4.55000000e+02	1.22002424e+13
4.56000000e+02	1.21508358e+13
4.57000000e+02	1.20986396e+13
4.58000000e+02	1.20436434e+13
4.59000000e+02	1.19858391e+13
4.60000000e+02	1.19252212e+13
4.61000000e+02	1.18617866e+13
4.62000000e+02	1.17955349e+13
4.63000000e+02	1.17264685e+13
4.64000000e+02	1.16545925e+13
4.65000000e+02	1.15799154e+13
4.66000000e+02	1.15024485e+13
4.67000000e+02	1.14222063e+13
4.68000000e+02	1.13392069e+13
4.69000000e+02	1.12534716e+13
4.70000000e+02	1.11650255e+13
4.71000000e+02	1.10738972e+13
4.72000000e+02	1.09801193e+13
4.73000000e+02	1.08837281e+13
4.74000000e+02	1.07847640e+13
4.75000000e+02	1.06832715e+13
4.76000000e+02	1.05792995e+13
4.77000000e+02	1.04729008e+13
4.78000000e+02	1.03641329e+13
4.79000000e+02	1.02530577e+13
4.80000000e+02	1.01397415e+13
4.81000000e+02	1.00242552e+13
4.82000000e+02	9.90667442e+12
4.83000000e+02	9.78707917e+12
4.84000000e+02	9.66555426e+12
4.85000000e+02	9.54218902e+12
4.86000000e+02	9.41707738e+12
4.87000000e+02	9.29031777e+12
4.88000000e+02	9.16201306e+12
4.89000000e+02	9.03227044e+12
4.90000000e+02	8.90120128e+12
4.91000000e+02	8.76892101e+12
4.92000000e+02	8.63554886e+12
4.93000000e+02	8.50120770e+12
4.94000000e+02	8.36602374e+12
4.95000000e+02	8.23012627e+12
4.96000000e+02	8.09364731e+12
4.97000000e+02	7.95672127e+12
4.98000000e+02	7.81948457e+12
4.99000000e+02	7.68207520e+12
5.00000000e+02	7.54463229e+12
5.01000000e+02	7.40729561e+12
5.02000000e+02	7.27020508e+12
5.03000000e+02	7.13350024e+12
5.04000000e+02	6.99731970e+12
5.05000000e+02	6.86180060e+12
5.06000000e+02	6.72707802e+12
5.07000000e+02	6.59328441e+12
5.08000000e+02	6.46054904e+12
5.09000000e+02	6.32899742e+12
5.10000000e+02	6.19875077e+12
5.11000000e+02	6.06992546e+12
5.12000000e+02	5.94263256e+12
5.13000000e+02	5.81697732e+12
5.14000000e+02	5.69305880e+12
5.15000000e+02	5.57096943e+12
5.16000000e+02	5.45079473e+12
5.17000000e+02	5.33261299e+12
5.18000000e+02	5.21649506e+12
5.19000000e+02	5.10250421e+12
5.20000000e+02	4.99069598e+12
5.21000000e+02	4.88111818e+12
5.22000000e+02	4.77381089e+12
5.23000000e+02	4.66880652e+12
5.24000000e+02	4.56612999e+12
5.25000000e+02	4.46579887e+12
5.26000000e+02	4.36782363e+12
5.27000000e+02	4.27220794e+12
5.28000000e+02	4.17894895e+12
5.29000000e+02	4.08803769e+12
5.30000000e+02	3.99945941e+12
5.31000000e+02	3.91319399e+12
5.32000000e+02	3.82921638e+12
5.33000000e+02	3.74749700e+12
5.34000000e+02	3.66800219e+12
5.35000000e+02	3.59069464e+12
5.36000000e+02	3.51553382e+12
5.37000000e+02	3.44247636e+12
5.38000000e+02	3.37147653e+12
5.39000000e+02	3.30248656e+12
5.40000000e+02	3.23545703e+12
5.41000000e+02	3.17033722e+12
5.42000000e+02	3.10707547e+12
5.43000000e+02	3.04561940e+12
5.44000000e+02	2.98591628e+12
5.45000000e+02	2.92791322e+12
5.46000000e+02	2.87155742e+12
5.47000000e+02	2.81679638e+12
5.48000000e+02	2.76357808e+12
5.49000000e+02	2.71185113e+12
5.50000000e+02	2.66156492e+12
5.51000000e+02	2.61266973e+12
5.52000000e+02	2.56511686e+12
5.53000000e+02	2.51885865e+12
5.54000000e+02	2.47384861e+12
5.55000000e+02	2.43004144e+12
5.56000000e+02	2.38739309e+12
5.57000000e+02	2.34586075e+12
5.58000000e+02	2.30540291e+12
5.59000000e+02	2.26597935e+12
5.60000000e+02	2.22755114e+12
5.61000000e+02	2.19008063e+12
5.62000000e+02	2.15353144e+12
5.63000000e+02	2.11786844e+12
5.64000000e+02	2.08305773e+12
5.65000000e+02	2.04906663e+12
5.66000000e+02	2.01586360e+12
5.67000000e+02	1.98341828e+12
5.68000000e+02	1.95170138e+12
5.69000000e+02	1.92068472e+12
5.70000000e+02	1.89034114e+12
5.71000000e+02	1.86064450e+12
5.72000000e+02	1.83156962e+12
5.73000000e+02	1.80309224e+12
5.74000000e+02	1.77518903e+12
5.75000000e+02	1.74783751e+12
5.76000000e+02	1.72101602e+12
5.77000000e+02	1.69470371e+12
5.78000000e+02	1.66888052e+12
5.79000000e+02	1.64352708e+12
5.80000000e+02	1.61862477e+12
5.81000000e+02	1.59415563e+12
5.82000000e+02	1.57010236e+12
5.83000000e+02	1.54644829e+12
5.84000000e+02	1.52317736e+12
5.85000000e+02	1.50027408e+12
5.86000000e+02	1.47772354e+12
5.87000000e+02	1.45551135e+12
5.88000000e+02	1.43362367e+12
5.89000000e+02	1.41204716e+12
5.90000000e+02	1.39076896e+12
5.91000000e+02	1.36977671e+12
5.92000000e+02	1.34905849e+12
5.93000000e+02	1.32860286e+12
5.94000000e+02	1.30839881e+12
5.95000000e+02	1.28843575e+12
5.96000000e+02	1.26870356e+12
5.97000000e+02	1.24919249e+12
5.98000000e+02	1.22989322e+12
5.99000000e+02	1.21079685e+12
6.00000000e+02	1.19189487e+12
6.01000000e+02	1.17317916e+12
6.02000000e+02	1.15464204e+12
6.03000000e+02	1.13627613e+12
6.04000000e+02	1.11807453e+12
6.05000000e+02	1.10003101e+12
6.06000000e+02	1.08213891e+12
6.07000000e+02	1.06439216e+12
6.08000000e+02	1.04678575e+12
6.09000000e+02	1.02931510e+12
6.10000000e+02	1.01197506e+12
6.11000000e+02	9.94761906e+11
6.12000000e+02	9.77671223e+11
6.13000000e+02	9.60700020e+11
6.14000000e+02	9.43844689e+11
6.15000000e+02	9.27103045e+11
6.16000000e+02	9.10472361e+11
6.17000000e+02	8.93950719e+11
6.18000000e+02	8.77536676e+11
6.19000000e+02	8.61228515e+11
6.20000000e+02	8.45025891e+11
6.21000000e+02	8.28927644e+11
6.22000000e+02	8.12933976e+11
6.23000000e+02	7.97044713e+11
6.24000000e+02	7.81260191e+11
6.25000000e+02	7.65581344e+11
6.26000000e+02	7.50008733e+11
6.27000000e+02	7.34544072e+11
6.28000000e+02	7.19188416e+11
6.29000000e+02	7.03943838e+11
6.30000000e+02	6.88812070e+11
6.31000000e+02	6.73795327e+11
6.32000000e+02	6.58896108e+11
6.33000000e+02	6.44116673e+11
6.34000000e+02	6.29460048e+11
6.35000000e+02	6.14928680e+11
6.36000000e+02	6.00525820e+11
6.37000000e+02	5.86254220e+11
6.38000000e+02	5.72117134e+11
6.39000000e+02	5.58117610e+11
6.40000000e+02	5.44258794e+11
6.41000000e+02	5.30543943e+11
6.42000000e+02	5.16976005e+11
6.43000000e+02	5.03558341e+11
6.44000000e+02	4.90293777e+11
6.45000000e+02	4.77185531e+11
6.46000000e+02	4.64236279e+11
6.47000000e+02	4.51448993e+11
6.48000000e+02	4.38826184e+11
6.49000000e+02	4.26370458e+11
6.50000000e+02	4.14084092e+11
6.51000000e+02	4.01969298e+11
6.52000000e+02	3.90028093e+11
6.53000000e+02	3.78262200e+11
6.54000000e+02	3.66673289e+11
6.55000000e+02	3.55262607e+11
6.56000000e+02	3.44031389e+11
6.57000000e+02	3.32980393e+11
6.58000000e+02	3.22110374e+11
6.59000000e+02	3.11421612e+11
