# Profil de FluxX au temps 5.000000000000045e-12 
# simu : /Volumes/MERCURE/JOBS/Zeq1_tanh_50mic_5e20_B0_20ps/GNU/FluxX@y-c.set
# col 0 : abscisse (um)
# col 1 : FluxX (W/cm2)
0.00000000e+00	0.00000000e+00
1.00000000e+00	7.13540101e+06
2.00000000e+00	1.36218783e+07
3.00000000e+00	2.17609127e+07
4.00000000e+00	2.87814614e+07
5.00000000e+00	3.57684396e+07
6.00000000e+00	4.27891949e+07
7.00000000e+00	4.98714162e+07
8.00000000e+00	5.70310281e+07
9.00000000e+00	6.42803355e+07
1.00000000e+01	7.16310593e+07
1.10000000e+01	7.90950143e+07
1.20000000e+01	8.66841903e+07
1.30000000e+01	9.44107856e+07
1.40000000e+01	1.02287212e+08
1.50000000e+01	1.10326127e+08
1.60000000e+01	1.18540436e+08
1.70000000e+01	1.26943323e+08
1.80000000e+01	1.35548271e+08
1.90000000e+01	1.44369088e+08
2.00000000e+01	1.53419909e+08
2.10000000e+01	1.62715250e+08
2.20000000e+01	1.72270000e+08
2.30000000e+01	1.82099475e+08
2.40000000e+01	1.92219419e+08
2.50000000e+01	2.02646034e+08
2.60000000e+01	2.13396018e+08
2.70000000e+01	2.24486579e+08
2.80000000e+01	2.35935463e+08
2.90000000e+01	2.47761002e+08
3.00000000e+01	2.59982109e+08
3.10000000e+01	2.72618345e+08
3.20000000e+01	2.85689909e+08
3.30000000e+01	2.99217711e+08
3.40000000e+01	3.13223397e+08
3.50000000e+01	3.27729355e+08
3.60000000e+01	3.42758772e+08
3.70000000e+01	3.58335682e+08
3.80000000e+01	3.74484979e+08
3.90000000e+01	3.91232474e+08
4.00000000e+01	4.08604933e+08
4.10000000e+01	4.26630115e+08
4.20000000e+01	4.45336825e+08
4.30000000e+01	4.64754935e+08
4.40000000e+01	4.84915472e+08
4.50000000e+01	5.05850639e+08
4.60000000e+01	5.27593859e+08
4.70000000e+01	5.50179863e+08
4.80000000e+01	5.73644704e+08
4.90000000e+01	5.98025845e+08
5.00000000e+01	6.23362201e+08
5.10000000e+01	6.49694208e+08
5.20000000e+01	6.77063887e+08
5.30000000e+01	7.05514910e+08
5.40000000e+01	7.35092666e+08
5.50000000e+01	7.65844332e+08
5.60000000e+01	7.97818948e+08
5.70000000e+01	8.31067508e+08
5.80000000e+01	8.65643010e+08
5.90000000e+01	9.01600577e+08
6.00000000e+01	9.38997511e+08
6.10000000e+01	9.77893409e+08
6.20000000e+01	1.01835025e+09
6.30000000e+01	1.06043245e+09
6.40000000e+01	1.10420705e+09
6.50000000e+01	1.14974374e+09
6.60000000e+01	1.19711500e+09
6.70000000e+01	1.24639625e+09
6.80000000e+01	1.29766587e+09
6.90000000e+01	1.35100545e+09
7.00000000e+01	1.40649980e+09
7.10000000e+01	1.46423715e+09
7.20000000e+01	1.52430930e+09
7.30000000e+01	1.58681169e+09
7.40000000e+01	1.65184362e+09
7.50000000e+01	1.71950838e+09
7.60000000e+01	1.78991339e+09
7.70000000e+01	1.86317041e+09
7.80000000e+01	1.93939566e+09
7.90000000e+01	2.01871005e+09
8.00000000e+01	2.10123932e+09
8.10000000e+01	2.18711429e+09
8.20000000e+01	2.27647101e+09
8.30000000e+01	2.36945100e+09
8.40000000e+01	2.46620145e+09
8.50000000e+01	2.56687545e+09
8.60000000e+01	2.67163221e+09
8.70000000e+01	2.78063738e+09
8.80000000e+01	2.89406317e+09
8.90000000e+01	3.01208873e+09
9.00000000e+01	3.13490037e+09
9.10000000e+01	3.26269183e+09
9.20000000e+01	3.39566460e+09
9.30000000e+01	3.53402823e+09
9.40000000e+01	3.67800062e+09
9.50000000e+01	3.82780836e+09
9.60000000e+01	3.98368706e+09
9.70000000e+01	4.14588171e+09
9.80000000e+01	4.31464706e+09
9.90000000e+01	4.49024795e+09
1.00000000e+02	4.67295978e+09
1.01000000e+02	4.86306883e+09
1.02000000e+02	5.06087274e+09
1.03000000e+02	5.26668093e+09
1.04000000e+02	5.48081503e+09
1.05000000e+02	5.70360940e+09
1.06000000e+02	5.93541158e+09
1.07000000e+02	6.17658276e+09
1.08000000e+02	6.42749838e+09
1.09000000e+02	6.68854862e+09
1.10000000e+02	6.96013896e+09
1.11000000e+02	7.24269076e+09
1.12000000e+02	7.53664186e+09
1.13000000e+02	7.84244719e+09
1.14000000e+02	8.16057942e+09
1.15000000e+02	8.49152964e+09
1.16000000e+02	8.83580798e+09
1.17000000e+02	9.19394439e+09
1.18000000e+02	9.56648930e+09
1.19000000e+02	9.95401443e+09
1.20000000e+02	1.03571135e+10
1.21000000e+02	1.07764032e+10
1.22000000e+02	1.12125237e+10
1.23000000e+02	1.16661399e+10
1.24000000e+02	1.21379419e+10
1.25000000e+02	1.26286463e+10
1.26000000e+02	1.31389968e+10
1.27000000e+02	1.36697654e+10
1.28000000e+02	1.42217533e+10
1.29000000e+02	1.47957920e+10
1.30000000e+02	1.53927441e+10
1.31000000e+02	1.60135047e+10
1.32000000e+02	1.66590023e+10
1.33000000e+02	1.73302002e+10
1.34000000e+02	1.80280972e+10
1.35000000e+02	1.87537294e+10
1.36000000e+02	1.95081711e+10
1.37000000e+02	2.02925358e+10
1.38000000e+02	2.11079783e+10
1.39000000e+02	2.19556952e+10
1.40000000e+02	2.28369269e+10
1.41000000e+02	2.37529587e+10
1.42000000e+02	2.47051222e+10
1.43000000e+02	2.56947969e+10
1.44000000e+02	2.67234118e+10
1.45000000e+02	2.77924467e+10
1.46000000e+02	2.89034340e+10
1.47000000e+02	3.00579602e+10
1.48000000e+02	3.12576675e+10
1.49000000e+02	3.25042557e+10
1.50000000e+02	3.37994836e+10
1.51000000e+02	3.51451711e+10
1.52000000e+02	3.65432006e+10
1.53000000e+02	3.79955192e+10
1.54000000e+02	3.95041401e+10
1.55000000e+02	4.10711451e+10
1.56000000e+02	4.26986857e+10
1.57000000e+02	4.43889858e+10
1.58000000e+02	4.61443431e+10
1.59000000e+02	4.79671314e+10
1.60000000e+02	4.98598025e+10
1.61000000e+02	5.18248884e+10
1.62000000e+02	5.38650030e+10
1.63000000e+02	5.59828444e+10
1.64000000e+02	5.81811971e+10
1.65000000e+02	6.04629339e+10
1.66000000e+02	6.28310184e+10
1.67000000e+02	6.52885065e+10
1.68000000e+02	6.78385491e+10
1.69000000e+02	7.04843942e+10
1.70000000e+02	7.32293887e+10
1.71000000e+02	7.60769811e+10
1.72000000e+02	7.90307231e+10
1.73000000e+02	8.20942723e+10
1.74000000e+02	8.52713937e+10
1.75000000e+02	8.85659627e+10
1.76000000e+02	9.19819663e+10
1.77000000e+02	9.55235058e+10
1.78000000e+02	9.91947989e+10
1.79000000e+02	1.03000181e+11
1.80000000e+02	1.06944108e+11
1.81000000e+02	1.11031159e+11
1.82000000e+02	1.15266034e+11
1.83000000e+02	1.19653564e+11
1.84000000e+02	1.24198703e+11
1.85000000e+02	1.28906536e+11
1.86000000e+02	1.33782281e+11
1.87000000e+02	1.38831286e+11
1.88000000e+02	1.44059035e+11
1.89000000e+02	1.49471146e+11
1.90000000e+02	1.55073376e+11
1.91000000e+02	1.60871618e+11
1.92000000e+02	1.66871906e+11
1.93000000e+02	1.73080412e+11
1.94000000e+02	1.79503450e+11
1.95000000e+02	1.86147477e+11
1.96000000e+02	1.93019090e+11
1.97000000e+02	2.00125028e+11
1.98000000e+02	2.07472176e+11
1.99000000e+02	2.15067558e+11
2.00000000e+02	2.22918343e+11
2.01000000e+02	2.31031842e+11
2.02000000e+02	2.39415506e+11
2.03000000e+02	2.48076929e+11
2.04000000e+02	2.57023845e+11
2.05000000e+02	2.66264125e+11
2.06000000e+02	2.75805780e+11
2.07000000e+02	2.85656955e+11
2.08000000e+02	2.95825931e+11
2.09000000e+02	3.06321118e+11
2.10000000e+02	3.17151059e+11
2.11000000e+02	3.28324421e+11
2.12000000e+02	3.39849998e+11
2.13000000e+02	3.51736702e+11
2.14000000e+02	3.63993564e+11
2.15000000e+02	3.76629729e+11
2.16000000e+02	3.89654452e+11
2.17000000e+02	4.03077091e+11
2.18000000e+02	4.16907107e+11
2.19000000e+02	4.31154056e+11
2.20000000e+02	4.45827586e+11
2.21000000e+02	4.60937429e+11
2.22000000e+02	4.76493395e+11
2.23000000e+02	4.92505370e+11
2.24000000e+02	5.08983305e+11
2.25000000e+02	5.25937211e+11
2.26000000e+02	5.43377153e+11
2.27000000e+02	5.61313241e+11
2.28000000e+02	5.79755622e+11
2.29000000e+02	5.98714475e+11
2.30000000e+02	6.18199998e+11
2.31000000e+02	6.38222405e+11
2.32000000e+02	6.58791913e+11
2.33000000e+02	6.79918734e+11
2.34000000e+02	7.01613066e+11
2.35000000e+02	7.23885085e+11
2.36000000e+02	7.46744932e+11
2.37000000e+02	7.70202703e+11
2.38000000e+02	7.94268442e+11
2.39000000e+02	8.18952129e+11
2.40000000e+02	8.44263666e+11
2.41000000e+02	8.70212872e+11
2.42000000e+02	8.96809467e+11
2.43000000e+02	9.24063062e+11
2.44000000e+02	9.51983149e+11
2.45000000e+02	9.80579089e+11
2.46000000e+02	1.00986010e+12
2.47000000e+02	1.03983524e+12
2.48000000e+02	1.07051341e+12
2.49000000e+02	1.10190334e+12
2.50000000e+02	1.13401353e+12
2.51000000e+02	1.16685233e+12
2.52000000e+02	1.20042785e+12
2.53000000e+02	1.23474797e+12
2.54000000e+02	1.26982035e+12
2.55000000e+02	1.30565238e+12
2.56000000e+02	1.34225122e+12
2.57000000e+02	1.37962374e+12
2.58000000e+02	1.41777652e+12
2.59000000e+02	1.45671587e+12
2.60000000e+02	1.49644778e+12
2.61000000e+02	1.53697794e+12
2.62000000e+02	1.57831170e+12
2.63000000e+02	1.62045409e+12
2.64000000e+02	1.66340978e+12
2.65000000e+02	1.70718312e+12
2.66000000e+02	1.75177807e+12
2.67000000e+02	1.79719823e+12
2.68000000e+02	1.84344683e+12
2.69000000e+02	1.89052672e+12
2.70000000e+02	1.93844034e+12
2.71000000e+02	1.98718975e+12
2.72000000e+02	2.03677660e+12
2.73000000e+02	2.08720214e+12
2.74000000e+02	2.13846720e+12
2.75000000e+02	2.19057219e+12
2.76000000e+02	2.24351712e+12
2.77000000e+02	2.29730156e+12
2.78000000e+02	2.35192466e+12
2.79000000e+02	2.40738513e+12
2.80000000e+02	2.46368128e+12
2.81000000e+02	2.52081097e+12
2.82000000e+02	2.57877165e+12
2.83000000e+02	2.63756033e+12
2.84000000e+02	2.69717360e+12
2.85000000e+02	2.75760763e+12
2.86000000e+02	2.81885818e+12
2.87000000e+02	2.88092058e+12
2.88000000e+02	2.94378976e+12
2.89000000e+02	3.00746025e+12
2.90000000e+02	3.07192618e+12
2.91000000e+02	3.13718128e+12
2.92000000e+02	3.20321891e+12
2.93000000e+02	3.27003204e+12
2.94000000e+02	3.33761328e+12
2.95000000e+02	3.40595490e+12
2.96000000e+02	3.47504879e+12
2.97000000e+02	3.54488653e+12
2.98000000e+02	3.61545935e+12
2.99000000e+02	3.68675820e+12
3.00000000e+02	3.75877370e+12
3.01000000e+02	3.83149618e+12
3.02000000e+02	3.90491573e+12
3.03000000e+02	3.97902213e+12
3.04000000e+02	4.05380494e+12
3.05000000e+02	4.12925349e+12
3.06000000e+02	4.20535687e+12
3.07000000e+02	4.28210399e+12
3.08000000e+02	4.35948355e+12
3.09000000e+02	4.43748409e+12
3.10000000e+02	4.51609399e+12
3.11000000e+02	4.59530148e+12
3.12000000e+02	4.67509468e+12
3.13000000e+02	4.75546157e+12
3.14000000e+02	4.83639007e+12
3.15000000e+02	4.91786800e+12
3.16000000e+02	4.99988311e+12
3.17000000e+02	5.08242311e+12
3.18000000e+02	5.16547568e+12
3.19000000e+02	5.24902848e+12
3.20000000e+02	5.33306915e+12
3.21000000e+02	5.41758536e+12
3.22000000e+02	5.50256477e+12
3.23000000e+02	5.58799511e+12
3.24000000e+02	5.67386414e+12
3.25000000e+02	5.76015968e+12
3.26000000e+02	5.84686960e+12
3.27000000e+02	5.93398189e+12
3.28000000e+02	6.02148459e+12
3.29000000e+02	6.10936585e+12
3.30000000e+02	6.19761393e+12
3.31000000e+02	6.28621720e+12
3.32000000e+02	6.37516413e+12
3.33000000e+02	6.46444333e+12
3.34000000e+02	6.55404352e+12
3.35000000e+02	6.64395356e+12
3.36000000e+02	6.73416242e+12
3.37000000e+02	6.82465920e+12
3.38000000e+02	6.91543313e+12
3.39000000e+02	7.00647356e+12
3.40000000e+02	7.09776996e+12
3.41000000e+02	7.18931191e+12
3.42000000e+02	7.28108908e+12
3.43000000e+02	7.37309125e+12
3.44000000e+02	7.46530829e+12
3.45000000e+02	7.55773013e+12
3.46000000e+02	7.65034677e+12
3.47000000e+02	7.74314825e+12
3.48000000e+02	7.83612466e+12
3.49000000e+02	7.92926607e+12
3.50000000e+02	8.02256256e+12
3.51000000e+02	8.11600420e+12
3.52000000e+02	8.20958098e+12
3.53000000e+02	8.30328284e+12
3.54000000e+02	8.39709962e+12
3.55000000e+02	8.49102102e+12
3.56000000e+02	8.58503660e+12
3.57000000e+02	8.67913575e+12
3.58000000e+02	8.77330763e+12
3.59000000e+02	8.86754116e+12
3.60000000e+02	8.96182499e+12
3.61000000e+02	9.05614747e+12
3.62000000e+02	9.15049657e+12
3.63000000e+02	9.24485991e+12
3.64000000e+02	9.33922468e+12
3.65000000e+02	9.43357761e+12
3.66000000e+02	9.52790493e+12
3.67000000e+02	9.62219234e+12
3.68000000e+02	9.71642496e+12
3.69000000e+02	9.81058729e+12
3.70000000e+02	9.90466317e+12
3.71000000e+02	9.99863574e+12
3.72000000e+02	1.00924874e+13
3.73000000e+02	1.01861997e+13
3.74000000e+02	1.02797535e+13
3.75000000e+02	1.03731287e+13
3.76000000e+02	1.04663043e+13
3.77000000e+02	1.05592582e+13
3.78000000e+02	1.06519676e+13
3.79000000e+02	1.07444085e+13
3.80000000e+02	1.08365557e+13
3.81000000e+02	1.09283831e+13
3.82000000e+02	1.10198633e+13
3.83000000e+02	1.11109678e+13
3.84000000e+02	1.12016668e+13
3.85000000e+02	1.12919293e+13
3.86000000e+02	1.13817230e+13
3.87000000e+02	1.14710142e+13
3.88000000e+02	1.15597678e+13
3.89000000e+02	1.16479476e+13
3.90000000e+02	1.17355156e+13
3.91000000e+02	1.18224326e+13
3.92000000e+02	1.19086580e+13
3.93000000e+02	1.19941496e+13
3.94000000e+02	1.20788637e+13
3.95000000e+02	1.21627552e+13
3.96000000e+02	1.22457774e+13
3.97000000e+02	1.23278821e+13
3.98000000e+02	1.24090196e+13
3.99000000e+02	1.24891387e+13
4.00000000e+02	1.25681867e+13
4.01000000e+02	1.26461093e+13
4.02000000e+02	1.27228508e+13
4.03000000e+02	1.27983540e+13
4.04000000e+02	1.28725601e+13
4.05000000e+02	1.29454091e+13
4.06000000e+02	1.30168395e+13
4.07000000e+02	1.30867882e+13
4.08000000e+02	1.31551912e+13
4.09000000e+02	1.32219827e+13
4.10000000e+02	1.32870960e+13
4.11000000e+02	1.33504631e+13
4.12000000e+02	1.34120149e+13
4.13000000e+02	1.34716810e+13
4.14000000e+02	1.35293903e+13
4.15000000e+02	1.35850706e+13
4.16000000e+02	1.36386487e+13
4.17000000e+02	1.36900508e+13
4.18000000e+02	1.37392024e+13
4.19000000e+02	1.37860283e+13
4.20000000e+02	1.38304528e+13
4.21000000e+02	1.38723999e+13
4.22000000e+02	1.39117931e+13
4.23000000e+02	1.39485561e+13
4.24000000e+02	1.39826122e+13
4.25000000e+02	1.40138848e+13
4.26000000e+02	1.40422977e+13
4.27000000e+02	1.40677750e+13
4.28000000e+02	1.40902411e+13
4.29000000e+02	1.41096213e+13
4.30000000e+02	1.41258415e+13
4.31000000e+02	1.41388285e+13
4.32000000e+02	1.41485106e+13
4.33000000e+02	1.41548169e+13
4.34000000e+02	1.41576782e+13
4.35000000e+02	1.41570271e+13
4.36000000e+02	1.41527977e+13
4.37000000e+02	1.41449263e+13
4.38000000e+02	1.41333514e+13
4.39000000e+02	1.41180138e+13
4.40000000e+02	1.40988571e+13
4.41000000e+02	1.40758275e+13
4.42000000e+02	1.40488743e+13
4.43000000e+02	1.40179501e+13
4.44000000e+02	1.39830107e+13
4.45000000e+02	1.39440159e+13
4.46000000e+02	1.39009289e+13
4.47000000e+02	1.38537174e+13
4.48000000e+02	1.38023532e+13
4.49000000e+02	1.37468125e+13
4.50000000e+02	1.36870765e+13
4.51000000e+02	1.36231310e+13
4.52000000e+02	1.35549672e+13
4.53000000e+02	1.34825814e+13
4.54000000e+02	1.34059758e+13
4.55000000e+02	1.33251579e+13
4.56000000e+02	1.32401416e+13
4.57000000e+02	1.31509466e+13
4.58000000e+02	1.30575989e+13
4.59000000e+02	1.29601312e+13
4.60000000e+02	1.28585826e+13
4.61000000e+02	1.27529991e+13
4.62000000e+02	1.26434335e+13
4.63000000e+02	1.25299456e+13
4.64000000e+02	1.24126025e+13
4.65000000e+02	1.22914782e+13
4.66000000e+02	1.21666541e+13
4.67000000e+02	1.20382189e+13
4.68000000e+02	1.19062685e+13
4.69000000e+02	1.17709060e+13
4.70000000e+02	1.16322419e+13
4.71000000e+02	1.14903936e+13
4.72000000e+02	1.13454858e+13
4.73000000e+02	1.11976497e+13
4.74000000e+02	1.10470236e+13
4.75000000e+02	1.08937518e+13
4.76000000e+02	1.07379852e+13
4.77000000e+02	1.05798803e+13
4.78000000e+02	1.04195992e+13
4.79000000e+02	1.02573093e+13
4.80000000e+02	1.00931824e+13
4.81000000e+02	9.92739481e+12
4.82000000e+02	9.76012632e+12
4.83000000e+02	9.59155996e+12
4.84000000e+02	9.42188127e+12
4.85000000e+02	9.25127766e+12
4.86000000e+02	9.07993779e+12
4.87000000e+02	8.90805083e+12
4.88000000e+02	8.73580575e+12
4.89000000e+02	8.56339057e+12
4.90000000e+02	8.39099162e+12
4.91000000e+02	8.21879277e+12
4.92000000e+02	8.04697465e+12
4.93000000e+02	7.87571396e+12
4.94000000e+02	7.70518264e+12
4.95000000e+02	7.53554723e+12
4.96000000e+02	7.36696817e+12
4.97000000e+02	7.19959912e+12
4.98000000e+02	7.03358641e+12
4.99000000e+02	6.86906847e+12
5.00000000e+02	6.70617534e+12
5.01000000e+02	6.54502825e+12
5.02000000e+02	6.38573928e+12
5.03000000e+02	6.22841108e+12
5.04000000e+02	6.07313663e+12
5.05000000e+02	5.91999918e+12
5.06000000e+02	5.76907216e+12
5.07000000e+02	5.62041920e+12
5.08000000e+02	5.47409428e+12
5.09000000e+02	5.33014189e+12
5.10000000e+02	5.18859728e+12
5.11000000e+02	5.04948679e+12
5.12000000e+02	4.91282821e+12
5.13000000e+02	4.77863123e+12
5.14000000e+02	4.64689791e+12
5.15000000e+02	4.51762319e+12
5.16000000e+02	4.39079549e+12
5.17000000e+02	4.26639724e+12
5.18000000e+02	4.14440549e+12
5.19000000e+02	4.02479256e+12
5.20000000e+02	3.90752661e+12
5.21000000e+02	3.79257229e+12
5.22000000e+02	3.67989135e+12
5.23000000e+02	3.56944320e+12
5.24000000e+02	3.46118556e+12
5.25000000e+02	3.35507496e+12
5.26000000e+02	3.25106731e+12
5.27000000e+02	3.14911840e+12
5.28000000e+02	3.04918435e+12
5.29000000e+02	2.95122211e+12
5.30000000e+02	2.85518979e+12
5.31000000e+02	2.76104710e+12
5.32000000e+02	2.66875564e+12
5.33000000e+02	2.57827919e+12
5.34000000e+02	2.48958399e+12
5.35000000e+02	2.40263893e+12
5.36000000e+02	2.31741573e+12
5.37000000e+02	2.23388907e+12
5.38000000e+02	2.15203668e+12
5.39000000e+02	2.07183939e+12
5.40000000e+02	1.99328118e+12
5.41000000e+02	1.91634910e+12
5.42000000e+02	1.84103321e+12
5.43000000e+02	1.76732656e+12
5.44000000e+02	1.69522495e+12
5.45000000e+02	1.62472684e+12
5.46000000e+02	1.55583308e+12
5.47000000e+02	1.48854675e+12
5.48000000e+02	1.42287285e+12
5.49000000e+02	1.35881802e+12
5.50000000e+02	1.29639022e+12
5.51000000e+02	1.23559845e+12
5.52000000e+02	1.17645234e+12
5.53000000e+02	1.11896183e+12
5.54000000e+02	1.06313677e+12
5.55000000e+02	1.00898660e+12
5.56000000e+02	9.56519949e+11
5.57000000e+02	9.05744277e+11
5.58000000e+02	8.56665534e+11
5.59000000e+02	8.09287825e+11
5.60000000e+02	7.63613102e+11
5.61000000e+02	7.19640880e+11
5.62000000e+02	6.77367982e+11
5.63000000e+02	6.36788329e+11
5.64000000e+02	5.97892749e+11
5.65000000e+02	5.60668846e+11
5.66000000e+02	5.25100902e+11
5.67000000e+02	4.91169818e+11
5.68000000e+02	4.58853113e+11
5.69000000e+02	4.28124951e+11
5.70000000e+02	3.98956224e+11
5.71000000e+02	3.71314662e+11
5.72000000e+02	3.45164998e+11
5.73000000e+02	3.20469147e+11
5.74000000e+02	2.97186434e+11
5.75000000e+02	2.75273836e+11
5.76000000e+02	2.54686253e+11
5.77000000e+02	2.35376790e+11
5.78000000e+02	2.17297060e+11
5.79000000e+02	2.00397481e+11
5.80000000e+02	1.84627586e+11
5.81000000e+02	1.69936330e+11
5.82000000e+02	1.56272384e+11
5.83000000e+02	1.43584422e+11
5.84000000e+02	1.31821398e+11
5.85000000e+02	1.20932801e+11
5.86000000e+02	1.10868893e+11
5.87000000e+02	1.01580928e+11
5.88000000e+02	9.30213424e+10
5.89000000e+02	8.51439293e+10
5.90000000e+02	7.79039852e+10
5.91000000e+02	7.12584312e+10
5.92000000e+02	6.51659229e+10
5.93000000e+02	5.95869160e+10
5.94000000e+02	5.44837276e+10
5.95000000e+02	4.98205735e+10
5.96000000e+02	4.55635855e+10
5.97000000e+02	4.16808108e+10
5.98000000e+02	3.81421970e+10
5.99000000e+02	3.49195635e+10
6.00000000e+02	3.19865610e+10
6.01000000e+02	2.93186206e+10
6.02000000e+02	2.68928941e+10
6.03000000e+02	2.46881887e+10
6.04000000e+02	2.26848944e+10
6.05000000e+02	2.08649096e+10
6.06000000e+02	1.92115622e+10
6.07000000e+02	1.77095301e+10
6.08000000e+02	1.63447614e+10
6.09000000e+02	1.51043940e+10
6.10000000e+02	1.39766774e+10
6.11000000e+02	1.29508955e+10
6.12000000e+02	1.20172923e+10
6.13000000e+02	1.11669997e+10
6.14000000e+02	1.03919693e+10
6.15000000e+02	9.68490661e+09
6.16000000e+02	9.03920905e+09
6.17000000e+02	8.44890789e+09
6.18000000e+02	7.90861335e+09
6.19000000e+02	7.41346351e+09
6.20000000e+02	6.95907673e+09
6.21000000e+02	6.54150754e+09
6.22000000e+02	6.15720590e+09
6.23000000e+02	5.80297968e+09
6.24000000e+02	5.47596015e+09
6.25000000e+02	5.17357042e+09
6.26000000e+02	4.89349657e+09
6.27000000e+02	4.63366142e+09
6.28000000e+02	4.39220056e+09
6.29000000e+02	4.16744069e+09
6.30000000e+02	3.95787998e+09
6.31000000e+02	3.76217026e+09
6.32000000e+02	3.57910108e+09
6.33000000e+02	3.40758519e+09
6.34000000e+02	3.24664561e+09
6.35000000e+02	3.09540391e+09
6.36000000e+02	2.95306973e+09
6.37000000e+02	2.81893147e+09
6.38000000e+02	2.69234776e+09
6.39000000e+02	2.57274004e+09
6.40000000e+02	2.45958582e+09
6.41000000e+02	2.35241260e+09
6.42000000e+02	2.25079264e+09
6.43000000e+02	2.15433807e+09
6.44000000e+02	2.06269668e+09
6.45000000e+02	1.97554816e+09
6.46000000e+02	1.89260064e+09
6.47000000e+02	1.81358777e+09
6.48000000e+02	1.73826598e+09
6.49000000e+02	1.66641212e+09
6.50000000e+02	1.59782135e+09
6.51000000e+02	1.53230522e+09
6.52000000e+02	1.46969000e+09
6.53000000e+02	1.40981520e+09
6.54000000e+02	1.35253219e+09
6.55000000e+02	1.29770304e+09
6.56000000e+02	1.24519945e+09
6.57000000e+02	1.19490175e+09
6.58000000e+02	1.14669812e+09
6.59000000e+02	1.10048376e+09
