# Profil de Te au temps 7.000000000000077e-12 
# simu : /Volumes/MERCURE/JOBS/Zeq1_tanh_50mic_5e20_B0_20ps/GNU/Te@y-c.set
# col 0 : abscisse (um)
# col 1 : Te (keV)
5.00000000e-01	9.99994562e-01
1.50000000e+00	9.99994548e-01
2.50000000e+00	9.99994533e-01
3.50000000e+00	9.99994508e-01
4.50000000e+00	9.99994472e-01
5.50000000e+00	9.99994427e-01
6.50000000e+00	9.99994373e-01
7.50000000e+00	9.99994310e-01
8.50000000e+00	9.99994238e-01
9.50000000e+00	9.99994157e-01
1.05000000e+01	9.99994066e-01
1.15000000e+01	9.99993966e-01
1.25000000e+01	9.99993857e-01
1.35000000e+01	9.99993738e-01
1.45000000e+01	9.99993609e-01
1.55000000e+01	9.99993470e-01
1.65000000e+01	9.99993321e-01
1.75000000e+01	9.99993161e-01
1.85000000e+01	9.99992991e-01
1.95000000e+01	9.99992809e-01
2.05000000e+01	9.99992616e-01
2.15000000e+01	9.99992412e-01
2.25000000e+01	9.99992195e-01
2.35000000e+01	9.99991966e-01
2.45000000e+01	9.99991725e-01
2.55000000e+01	9.99991471e-01
2.65000000e+01	9.99991203e-01
2.75000000e+01	9.99990921e-01
2.85000000e+01	9.99990625e-01
2.95000000e+01	9.99990315e-01
3.05000000e+01	9.99989989e-01
3.15000000e+01	9.99989648e-01
3.25000000e+01	9.99989291e-01
3.35000000e+01	9.99988916e-01
3.45000000e+01	9.99988525e-01
3.55000000e+01	9.99988116e-01
3.65000000e+01	9.99987688e-01
3.75000000e+01	9.99987241e-01
3.85000000e+01	9.99986774e-01
3.95000000e+01	9.99986287e-01
4.05000000e+01	9.99985779e-01
4.15000000e+01	9.99985248e-01
4.25000000e+01	9.99984695e-01
4.35000000e+01	9.99984118e-01
4.45000000e+01	9.99983517e-01
4.55000000e+01	9.99982890e-01
4.65000000e+01	9.99982238e-01
4.75000000e+01	9.99981557e-01
4.85000000e+01	9.99980849e-01
4.95000000e+01	9.99980112e-01
5.05000000e+01	9.99979344e-01
5.15000000e+01	9.99978545e-01
5.25000000e+01	9.99977713e-01
5.35000000e+01	9.99976847e-01
5.45000000e+01	9.99975946e-01
5.55000000e+01	9.99975009e-01
5.65000000e+01	9.99974034e-01
5.75000000e+01	9.99973020e-01
5.85000000e+01	9.99971966e-01
5.95000000e+01	9.99970870e-01
6.05000000e+01	9.99969730e-01
6.15000000e+01	9.99968544e-01
6.25000000e+01	9.99967312e-01
6.35000000e+01	9.99966032e-01
6.45000000e+01	9.99964701e-01
6.55000000e+01	9.99963318e-01
6.65000000e+01	9.99961880e-01
6.75000000e+01	9.99960387e-01
6.85000000e+01	9.99958835e-01
6.95000000e+01	9.99957224e-01
7.05000000e+01	9.99955550e-01
7.15000000e+01	9.99953811e-01
7.25000000e+01	9.99952005e-01
7.35000000e+01	9.99950129e-01
7.45000000e+01	9.99948182e-01
7.55000000e+01	9.99946160e-01
7.65000000e+01	9.99944061e-01
7.75000000e+01	9.99941881e-01
7.85000000e+01	9.99939619e-01
7.95000000e+01	9.99937271e-01
8.05000000e+01	9.99934834e-01
8.15000000e+01	9.99932306e-01
8.25000000e+01	9.99929681e-01
8.35000000e+01	9.99926959e-01
8.45000000e+01	9.99924134e-01
8.55000000e+01	9.99921203e-01
8.65000000e+01	9.99918164e-01
8.75000000e+01	9.99915011e-01
8.85000000e+01	9.99911741e-01
8.95000000e+01	9.99908350e-01
9.05000000e+01	9.99904833e-01
9.15000000e+01	9.99901187e-01
9.25000000e+01	9.99897407e-01
9.35000000e+01	9.99893489e-01
9.45000000e+01	9.99889427e-01
9.55000000e+01	9.99885217e-01
9.65000000e+01	9.99880854e-01
9.75000000e+01	9.99876332e-01
9.85000000e+01	9.99871648e-01
9.95000000e+01	9.99866794e-01
1.00500000e+02	9.99861765e-01
1.01500000e+02	9.99856556e-01
1.02500000e+02	9.99851161e-01
1.03500000e+02	9.99845573e-01
1.04500000e+02	9.99839787e-01
1.05500000e+02	9.99833795e-01
1.06500000e+02	9.99827592e-01
1.07500000e+02	9.99821170e-01
1.08500000e+02	9.99814522e-01
1.09500000e+02	9.99807642e-01
1.10500000e+02	9.99800521e-01
1.11500000e+02	9.99793153e-01
1.12500000e+02	9.99785529e-01
1.13500000e+02	9.99777641e-01
1.14500000e+02	9.99769481e-01
1.15500000e+02	9.99761041e-01
1.16500000e+02	9.99752313e-01
1.17500000e+02	9.99743286e-01
1.18500000e+02	9.99733953e-01
1.19500000e+02	9.99724303e-01
1.20500000e+02	9.99714328e-01
1.21500000e+02	9.99704017e-01
1.22500000e+02	9.99693361e-01
1.23500000e+02	9.99682349e-01
1.24500000e+02	9.99670971e-01
1.25500000e+02	9.99659216e-01
1.26500000e+02	9.99647073e-01
1.27500000e+02	9.99634530e-01
1.28500000e+02	9.99621578e-01
1.29500000e+02	9.99608202e-01
1.30500000e+02	9.99594392e-01
1.31500000e+02	9.99580136e-01
1.32500000e+02	9.99565420e-01
1.33500000e+02	9.99550232e-01
1.34500000e+02	9.99534560e-01
1.35500000e+02	9.99518388e-01
1.36500000e+02	9.99501705e-01
1.37500000e+02	9.99484495e-01
1.38500000e+02	9.99466745e-01
1.39500000e+02	9.99448441e-01
1.40500000e+02	9.99429568e-01
1.41500000e+02	9.99410110e-01
1.42500000e+02	9.99390052e-01
1.43500000e+02	9.99369379e-01
1.44500000e+02	9.99348075e-01
1.45500000e+02	9.99326124e-01
1.46500000e+02	9.99303509e-01
1.47500000e+02	9.99280213e-01
1.48500000e+02	9.99256220e-01
1.49500000e+02	9.99231513e-01
1.50500000e+02	9.99206073e-01
1.51500000e+02	9.99179883e-01
1.52500000e+02	9.99152925e-01
1.53500000e+02	9.99125180e-01
1.54500000e+02	9.99096629e-01
1.55500000e+02	9.99067254e-01
1.56500000e+02	9.99037036e-01
1.57500000e+02	9.99005954e-01
1.58500000e+02	9.98973989e-01
1.59500000e+02	9.98941121e-01
1.60500000e+02	9.98907329e-01
1.61500000e+02	9.98872593e-01
1.62500000e+02	9.98836892e-01
1.63500000e+02	9.98800204e-01
1.64500000e+02	9.98762509e-01
1.65500000e+02	9.98723784e-01
1.66500000e+02	9.98684008e-01
1.67500000e+02	9.98643158e-01
1.68500000e+02	9.98601212e-01
1.69500000e+02	9.98558147e-01
1.70500000e+02	9.98513940e-01
1.71500000e+02	9.98468569e-01
1.72500000e+02	9.98422009e-01
1.73500000e+02	9.98374237e-01
1.74500000e+02	9.98325230e-01
1.75500000e+02	9.98274962e-01
1.76500000e+02	9.98223410e-01
1.77500000e+02	9.98170550e-01
1.78500000e+02	9.98116356e-01
1.79500000e+02	9.98060803e-01
1.80500000e+02	9.98003868e-01
1.81500000e+02	9.97945523e-01
1.82500000e+02	9.97885744e-01
1.83500000e+02	9.97824506e-01
1.84500000e+02	9.97761781e-01
1.85500000e+02	9.97697545e-01
1.86500000e+02	9.97631771e-01
1.87500000e+02	9.97564433e-01
1.88500000e+02	9.97495504e-01
1.89500000e+02	9.97424958e-01
1.90500000e+02	9.97352768e-01
1.91500000e+02	9.97278907e-01
1.92500000e+02	9.97203347e-01
1.93500000e+02	9.97126063e-01
1.94500000e+02	9.97047026e-01
1.95500000e+02	9.96966209e-01
1.96500000e+02	9.96883584e-01
1.97500000e+02	9.96799124e-01
1.98500000e+02	9.96712801e-01
1.99500000e+02	9.96624588e-01
2.00500000e+02	9.96534455e-01
2.01500000e+02	9.96442376e-01
2.02500000e+02	9.96348321e-01
2.03500000e+02	9.96252263e-01
2.04500000e+02	9.96154173e-01
2.05500000e+02	9.96054023e-01
2.06500000e+02	9.95951784e-01
2.07500000e+02	9.95847427e-01
2.08500000e+02	9.95740924e-01
2.09500000e+02	9.95632245e-01
2.10500000e+02	9.95521361e-01
2.11500000e+02	9.95408245e-01
2.12500000e+02	9.95292865e-01
2.13500000e+02	9.95175193e-01
2.14500000e+02	9.95055200e-01
2.15500000e+02	9.94932856e-01
2.16500000e+02	9.94808130e-01
2.17500000e+02	9.94680994e-01
2.18500000e+02	9.94551418e-01
2.19500000e+02	9.94419370e-01
2.20500000e+02	9.94284822e-01
2.21500000e+02	9.94147742e-01
2.22500000e+02	9.94008100e-01
2.23500000e+02	9.93865865e-01
2.24500000e+02	9.93721005e-01
2.25500000e+02	9.93573491e-01
2.26500000e+02	9.93423290e-01
2.27500000e+02	9.93270370e-01
2.28500000e+02	9.93114701e-01
2.29500000e+02	9.92956248e-01
2.30500000e+02	9.92794981e-01
2.31500000e+02	9.92630866e-01
2.32500000e+02	9.92463869e-01
2.33500000e+02	9.92293959e-01
2.34500000e+02	9.92121100e-01
2.35500000e+02	9.91945258e-01
2.36500000e+02	9.91766399e-01
2.37500000e+02	9.91584488e-01
2.38500000e+02	9.91399489e-01
2.39500000e+02	9.91211365e-01
2.40500000e+02	9.91020082e-01
2.41500000e+02	9.90825601e-01
2.42500000e+02	9.90627884e-01
2.43500000e+02	9.90426894e-01
2.44500000e+02	9.90222591e-01
2.45500000e+02	9.90014936e-01
2.46500000e+02	9.89803889e-01
2.47500000e+02	9.89589408e-01
2.48500000e+02	9.89371452e-01
2.49500000e+02	9.89149979e-01
2.50500000e+02	9.88924944e-01
2.51500000e+02	9.88696303e-01
2.52500000e+02	9.88464012e-01
2.53500000e+02	9.88228023e-01
2.54500000e+02	9.87988290e-01
2.55500000e+02	9.87744765e-01
2.56500000e+02	9.87497397e-01
2.57500000e+02	9.87246137e-01
2.58500000e+02	9.86990933e-01
2.59500000e+02	9.86731731e-01
2.60500000e+02	9.86468478e-01
2.61500000e+02	9.86201118e-01
2.62500000e+02	9.85929595e-01
2.63500000e+02	9.85653849e-01
2.64500000e+02	9.85373822e-01
2.65500000e+02	9.85089451e-01
2.66500000e+02	9.84800674e-01
2.67500000e+02	9.84507426e-01
2.68500000e+02	9.84209642e-01
2.69500000e+02	9.83907252e-01
2.70500000e+02	9.83600188e-01
2.71500000e+02	9.83288378e-01
2.72500000e+02	9.82971748e-01
2.73500000e+02	9.82650223e-01
2.74500000e+02	9.82323725e-01
2.75500000e+02	9.81992175e-01
2.76500000e+02	9.81655491e-01
2.77500000e+02	9.81313590e-01
2.78500000e+02	9.80966384e-01
2.79500000e+02	9.80613786e-01
2.80500000e+02	9.80255705e-01
2.81500000e+02	9.79892047e-01
2.82500000e+02	9.79522717e-01
2.83500000e+02	9.79147617e-01
2.84500000e+02	9.78766645e-01
2.85500000e+02	9.78379698e-01
2.86500000e+02	9.77986670e-01
2.87500000e+02	9.77587451e-01
2.88500000e+02	9.77181930e-01
2.89500000e+02	9.76769992e-01
2.90500000e+02	9.76351518e-01
2.91500000e+02	9.75926389e-01
2.92500000e+02	9.75494479e-01
2.93500000e+02	9.75055662e-01
2.94500000e+02	9.74609807e-01
2.95500000e+02	9.74156780e-01
2.96500000e+02	9.73696446e-01
2.97500000e+02	9.73228662e-01
2.98500000e+02	9.72753285e-01
2.99500000e+02	9.72270168e-01
3.00500000e+02	9.71779160e-01
3.01500000e+02	9.71280105e-01
3.02500000e+02	9.70772846e-01
3.03500000e+02	9.70257220e-01
3.04500000e+02	9.69733062e-01
3.05500000e+02	9.69200201e-01
3.06500000e+02	9.68658464e-01
3.07500000e+02	9.68107673e-01
3.08500000e+02	9.67547645e-01
3.09500000e+02	9.66978196e-01
3.10500000e+02	9.66399135e-01
3.11500000e+02	9.65810267e-01
3.12500000e+02	9.65211394e-01
3.13500000e+02	9.64602313e-01
3.14500000e+02	9.63982817e-01
3.15500000e+02	9.63352693e-01
3.16500000e+02	9.62711727e-01
3.17500000e+02	9.62059696e-01
3.18500000e+02	9.61396375e-01
3.19500000e+02	9.60721536e-01
3.20500000e+02	9.60034942e-01
3.21500000e+02	9.59336354e-01
3.22500000e+02	9.58625529e-01
3.23500000e+02	9.57902218e-01
3.24500000e+02	9.57166166e-01
3.25500000e+02	9.56417114e-01
3.26500000e+02	9.55654800e-01
3.27500000e+02	9.54878955e-01
3.28500000e+02	9.54089304e-01
3.29500000e+02	9.53285570e-01
3.30500000e+02	9.52467467e-01
3.31500000e+02	9.51634708e-01
3.32500000e+02	9.50786998e-01
3.33500000e+02	9.49924038e-01
3.34500000e+02	9.49045524e-01
3.35500000e+02	9.48151144e-01
3.36500000e+02	9.47240585e-01
3.37500000e+02	9.46313526e-01
3.38500000e+02	9.45369641e-01
3.39500000e+02	9.44408599e-01
3.40500000e+02	9.43430064e-01
3.41500000e+02	9.42433693e-01
3.42500000e+02	9.41419139e-01
3.43500000e+02	9.40386050e-01
3.44500000e+02	9.39334068e-01
3.45500000e+02	9.38262828e-01
3.46500000e+02	9.37171962e-01
3.47500000e+02	9.36061096e-01
3.48500000e+02	9.34929849e-01
3.49500000e+02	9.33777836e-01
3.50500000e+02	9.32604666e-01
3.51500000e+02	9.31409944e-01
3.52500000e+02	9.30193267e-01
3.53500000e+02	9.28954230e-01
3.54500000e+02	9.27692418e-01
3.55500000e+02	9.26407415e-01
3.56500000e+02	9.25098799e-01
3.57500000e+02	9.23766140e-01
3.58500000e+02	9.22409006e-01
3.59500000e+02	9.21026958e-01
3.60500000e+02	9.19619552e-01
3.61500000e+02	9.18186341e-01
3.62500000e+02	9.16726870e-01
3.63500000e+02	9.15240681e-01
3.64500000e+02	9.13727311e-01
3.65500000e+02	9.12186292e-01
3.66500000e+02	9.10617151e-01
3.67500000e+02	9.09019412e-01
3.68500000e+02	9.07392593e-01
3.69500000e+02	9.05736209e-01
3.70500000e+02	9.04049769e-01
3.71500000e+02	9.02332779e-01
3.72500000e+02	9.00584742e-01
3.73500000e+02	8.98805157e-01
3.74500000e+02	8.96993519e-01
3.75500000e+02	8.95149318e-01
3.76500000e+02	8.93272044e-01
3.77500000e+02	8.91361183e-01
3.78500000e+02	8.89416216e-01
3.79500000e+02	8.87436623e-01
3.80500000e+02	8.85421884e-01
3.81500000e+02	8.83371472e-01
3.82500000e+02	8.81284863e-01
3.83500000e+02	8.79161528e-01
3.84500000e+02	8.77000938e-01
3.85500000e+02	8.74802564e-01
3.86500000e+02	8.72565874e-01
3.87500000e+02	8.70290337e-01
3.88500000e+02	8.67975422e-01
3.89500000e+02	8.65620598e-01
3.90500000e+02	8.63225334e-01
3.91500000e+02	8.60789102e-01
3.92500000e+02	8.58311372e-01
3.93500000e+02	8.55791620e-01
3.94500000e+02	8.53229320e-01
3.95500000e+02	8.50623951e-01
3.96500000e+02	8.47974995e-01
3.97500000e+02	8.45281937e-01
3.98500000e+02	8.42544266e-01
3.99500000e+02	8.39761476e-01
4.00500000e+02	8.36933064e-01
4.01500000e+02	8.34058536e-01
4.02500000e+02	8.31137400e-01
4.03500000e+02	8.28169174e-01
4.04500000e+02	8.25153380e-01
4.05500000e+02	8.22089551e-01
4.06500000e+02	8.18977226e-01
4.07500000e+02	8.15815953e-01
4.08500000e+02	8.12605290e-01
4.09500000e+02	8.09344806e-01
4.10500000e+02	8.06034079e-01
4.11500000e+02	8.02672700e-01
4.12500000e+02	7.99260270e-01
4.13500000e+02	7.95796406e-01
4.14500000e+02	7.92280736e-01
4.15500000e+02	7.88712903e-01
4.16500000e+02	7.85092565e-01
4.17500000e+02	7.81419396e-01
4.18500000e+02	7.77693087e-01
4.19500000e+02	7.73913346e-01
4.20500000e+02	7.70079897e-01
4.21500000e+02	7.66192487e-01
4.22500000e+02	7.62250879e-01
4.23500000e+02	7.58254859e-01
4.24500000e+02	7.54204234e-01
4.25500000e+02	7.50098832e-01
4.26500000e+02	7.45938507e-01
4.27500000e+02	7.41723135e-01
4.28500000e+02	7.37452618e-01
4.29500000e+02	7.33126885e-01
4.30500000e+02	7.28745890e-01
4.31500000e+02	7.24309616e-01
4.32500000e+02	7.19818078e-01
4.33500000e+02	7.15271316e-01
4.34500000e+02	7.10669406e-01
4.35500000e+02	7.06012454e-01
4.36500000e+02	7.01300600e-01
4.37500000e+02	6.96534019e-01
4.38500000e+02	6.91712923e-01
4.39500000e+02	6.86837558e-01
4.40500000e+02	6.81908212e-01
4.41500000e+02	6.76925210e-01
4.42500000e+02	6.71888920e-01
4.43500000e+02	6.66799752e-01
4.44500000e+02	6.61658159e-01
4.45500000e+02	6.56464639e-01
4.46500000e+02	6.51219738e-01
4.47500000e+02	6.45924051e-01
4.48500000e+02	6.40578220e-01
4.49500000e+02	6.35182941e-01
4.50500000e+02	6.29738963e-01
4.51500000e+02	6.24247088e-01
4.52500000e+02	6.18708177e-01
4.53500000e+02	6.13123148e-01
4.54500000e+02	6.07492979e-01
4.55500000e+02	6.01818711e-01
4.56500000e+02	5.96101449e-01
4.57500000e+02	5.90342363e-01
4.58500000e+02	5.84542691e-01
4.59500000e+02	5.78703742e-01
4.60500000e+02	5.72826895e-01
4.61500000e+02	5.66913605e-01
4.62500000e+02	5.60965399e-01
4.63500000e+02	5.54983886e-01
4.64500000e+02	5.48970751e-01
4.65500000e+02	5.42927761e-01
4.66500000e+02	5.36856768e-01
4.67500000e+02	5.30759706e-01
4.68500000e+02	5.24638595e-01
4.69500000e+02	5.18495546e-01
4.70500000e+02	5.12332754e-01
4.71500000e+02	5.06152506e-01
4.72500000e+02	4.99957180e-01
4.73500000e+02	4.93749244e-01
4.74500000e+02	4.87531257e-01
4.75500000e+02	4.81305868e-01
4.76500000e+02	4.75075819e-01
4.77500000e+02	4.68843937e-01
4.78500000e+02	4.62613142e-01
4.79500000e+02	4.56386435e-01
4.80500000e+02	4.50166904e-01
4.81500000e+02	4.43957717e-01
4.82500000e+02	4.37762116e-01
4.83500000e+02	4.31583418e-01
4.84500000e+02	4.25425005e-01
4.85500000e+02	4.19290324e-01
4.86500000e+02	4.13182872e-01
4.87500000e+02	4.07106196e-01
4.88500000e+02	4.01063884e-01
4.89500000e+02	3.95059550e-01
4.90500000e+02	3.89096834e-01
4.91500000e+02	3.83179382e-01
4.92500000e+02	3.77310842e-01
4.93500000e+02	3.71494848e-01
4.94500000e+02	3.65735010e-01
4.95500000e+02	3.60034899e-01
4.96500000e+02	3.54398036e-01
4.97500000e+02	3.48827876e-01
4.98500000e+02	3.43327795e-01
4.99500000e+02	3.37901075e-01
5.00500000e+02	3.32550893e-01
5.01500000e+02	3.27280302e-01
5.02500000e+02	3.22092221e-01
5.03500000e+02	3.16989421e-01
5.04500000e+02	3.11974512e-01
5.05500000e+02	3.07049932e-01
5.06500000e+02	3.02217933e-01
5.07500000e+02	2.97480577e-01
5.08500000e+02	2.92839721e-01
5.09500000e+02	2.88297016e-01
5.10500000e+02	2.83853896e-01
5.11500000e+02	2.79511573e-01
5.12500000e+02	2.75271041e-01
5.13500000e+02	2.71133067e-01
5.14500000e+02	2.67098195e-01
5.15500000e+02	2.63166748e-01
5.16500000e+02	2.59338828e-01
5.17500000e+02	2.55614326e-01
5.18500000e+02	2.51992923e-01
5.19500000e+02	2.48474102e-01
5.20500000e+02	2.45057152e-01
5.21500000e+02	2.41741182e-01
5.22500000e+02	2.38525127e-01
5.23500000e+02	2.35407763e-01
5.24500000e+02	2.32387718e-01
5.25500000e+02	2.29463483e-01
5.26500000e+02	2.26633424e-01
5.27500000e+02	2.23895796e-01
5.28500000e+02	2.21248758e-01
5.29500000e+02	2.18690379e-01
5.30500000e+02	2.16218656e-01
5.31500000e+02	2.13831525e-01
5.32500000e+02	2.11526870e-01
5.33500000e+02	2.09302535e-01
5.34500000e+02	2.07156337e-01
5.35500000e+02	2.05086073e-01
5.36500000e+02	2.03089528e-01
5.37500000e+02	2.01164489e-01
5.38500000e+02	1.99308745e-01
5.39500000e+02	1.97520102e-01
5.40500000e+02	1.95796383e-01
5.41500000e+02	1.94135438e-01
5.42500000e+02	1.92535148e-01
5.43500000e+02	1.90993426e-01
5.44500000e+02	1.89508228e-01
5.45500000e+02	1.88077548e-01
5.46500000e+02	1.86699429e-01
5.47500000e+02	1.85371959e-01
5.48500000e+02	1.84093276e-01
5.49500000e+02	1.82861567e-01
5.50500000e+02	1.81675073e-01
5.51500000e+02	1.80532086e-01
5.52500000e+02	1.79430951e-01
5.53500000e+02	1.78370067e-01
5.54500000e+02	1.77347886e-01
5.55500000e+02	1.76362910e-01
5.56500000e+02	1.75413696e-01
5.57500000e+02	1.74498852e-01
5.58500000e+02	1.73617035e-01
5.59500000e+02	1.72766954e-01
5.60500000e+02	1.71947366e-01
5.61500000e+02	1.71157076e-01
5.62500000e+02	1.70394936e-01
5.63500000e+02	1.69659842e-01
5.64500000e+02	1.68950736e-01
5.65500000e+02	1.68266603e-01
5.66500000e+02	1.67606468e-01
5.67500000e+02	1.66969400e-01
5.68500000e+02	1.66354504e-01
5.69500000e+02	1.65760925e-01
5.70500000e+02	1.65187844e-01
5.71500000e+02	1.64634478e-01
5.72500000e+02	1.64100078e-01
5.73500000e+02	1.63583929e-01
5.74500000e+02	1.63085347e-01
5.75500000e+02	1.62603678e-01
5.76500000e+02	1.62138300e-01
5.77500000e+02	1.61688617e-01
5.78500000e+02	1.61254063e-01
5.79500000e+02	1.60834094e-01
5.80500000e+02	1.60428195e-01
5.81500000e+02	1.60035875e-01
5.82500000e+02	1.59656663e-01
5.83500000e+02	1.59290109e-01
5.84500000e+02	1.58935789e-01
5.85500000e+02	1.58593295e-01
5.86500000e+02	1.58262240e-01
5.87500000e+02	1.57942254e-01
5.88500000e+02	1.57632983e-01
5.89500000e+02	1.57334090e-01
5.90500000e+02	1.57045253e-01
5.91500000e+02	1.56766163e-01
5.92500000e+02	1.56496527e-01
5.93500000e+02	1.56236062e-01
5.94500000e+02	1.55984497e-01
5.95500000e+02	1.55741573e-01
5.96500000e+02	1.55507040e-01
5.97500000e+02	1.55280659e-01
5.98500000e+02	1.55062196e-01
5.99500000e+02	1.54851429e-01
6.00500000e+02	1.54648143e-01
6.01500000e+02	1.54452126e-01
6.02500000e+02	1.54263178e-01
6.03500000e+02	1.54081099e-01
6.04500000e+02	1.53905699e-01
6.05500000e+02	1.53736790e-01
6.06500000e+02	1.53574190e-01
6.07500000e+02	1.53417720e-01
6.08500000e+02	1.53267205e-01
6.09500000e+02	1.53122475e-01
6.10500000e+02	1.52983361e-01
6.11500000e+02	1.52849699e-01
6.12500000e+02	1.52721327e-01
6.13500000e+02	1.52598085e-01
6.14500000e+02	1.52479818e-01
6.15500000e+02	1.52366370e-01
6.16500000e+02	1.52257592e-01
6.17500000e+02	1.52153333e-01
6.18500000e+02	1.52053446e-01
6.19500000e+02	1.51957789e-01
6.20500000e+02	1.51866219e-01
6.21500000e+02	1.51778597e-01
6.22500000e+02	1.51694785e-01
6.23500000e+02	1.51614650e-01
6.24500000e+02	1.51538059e-01
6.25500000e+02	1.51464885e-01
6.26500000e+02	1.51394999e-01
6.27500000e+02	1.51328278e-01
6.28500000e+02	1.51264601e-01
6.29500000e+02	1.51203850e-01
6.30500000e+02	1.51145910e-01
6.31500000e+02	1.51090668e-01
6.32500000e+02	1.51038014e-01
6.33500000e+02	1.50987841e-01
6.34500000e+02	1.50940048e-01
6.35500000e+02	1.50894531e-01
6.36500000e+02	1.50851195e-01
6.37500000e+02	1.50809945e-01
6.38500000e+02	1.50770688e-01
6.39500000e+02	1.50733337e-01
6.40500000e+02	1.50697807e-01
6.41500000e+02	1.50664014e-01
6.42500000e+02	1.50631879e-01
6.43500000e+02	1.50601326e-01
6.44500000e+02	1.50572281e-01
6.45500000e+02	1.50544672e-01
6.46500000e+02	1.50518432e-01
6.47500000e+02	1.50493496e-01
6.48500000e+02	1.50469800e-01
6.49500000e+02	1.50447285e-01
6.50500000e+02	1.50425892e-01
6.51500000e+02	1.50405568e-01
6.52500000e+02	1.50386259e-01
6.53500000e+02	1.50367915e-01
6.54500000e+02	1.50350487e-01
6.55500000e+02	1.50333931e-01
6.56500000e+02	1.50318202e-01
6.57500000e+02	1.50303258e-01
6.58500000e+02	1.50289060e-01
6.59500000e+02	1.50275571e-01
6.60500000e+02	1.50262754e-01
