# Profil de Te au temps 1.000000000000012e-11 
# simu : /Volumes/MERCURE/JOBS/Zeq1_tanh_50mic_5e20_B0_20ps/GNU/Te@y-c.set
# col 0 : abscisse (um)
# col 1 : Te (keV)
5.00000000e-01	9.99790508e-01
1.50000000e+00	9.99790296e-01
2.50000000e+00	9.99789887e-01
3.50000000e+00	9.99789270e-01
4.50000000e+00	9.99788444e-01
5.50000000e+00	9.99787410e-01
6.50000000e+00	9.99786169e-01
7.50000000e+00	9.99784720e-01
8.50000000e+00	9.99783061e-01
9.50000000e+00	9.99781193e-01
1.05000000e+01	9.99779113e-01
1.15000000e+01	9.99776821e-01
1.25000000e+01	9.99774315e-01
1.35000000e+01	9.99771595e-01
1.45000000e+01	9.99768658e-01
1.55000000e+01	9.99765503e-01
1.65000000e+01	9.99762128e-01
1.75000000e+01	9.99758532e-01
1.85000000e+01	9.99754711e-01
1.95000000e+01	9.99750665e-01
2.05000000e+01	9.99746391e-01
2.15000000e+01	9.99741887e-01
2.25000000e+01	9.99737150e-01
2.35000000e+01	9.99732178e-01
2.45000000e+01	9.99726968e-01
2.55000000e+01	9.99721517e-01
2.65000000e+01	9.99715823e-01
2.75000000e+01	9.99709882e-01
2.85000000e+01	9.99703691e-01
2.95000000e+01	9.99697248e-01
3.05000000e+01	9.99690549e-01
3.15000000e+01	9.99683590e-01
3.25000000e+01	9.99676368e-01
3.35000000e+01	9.99668879e-01
3.45000000e+01	9.99661120e-01
3.55000000e+01	9.99653087e-01
3.65000000e+01	9.99644775e-01
3.75000000e+01	9.99636181e-01
3.85000000e+01	9.99627301e-01
3.95000000e+01	9.99618130e-01
4.05000000e+01	9.99608665e-01
4.15000000e+01	9.99598900e-01
4.25000000e+01	9.99588830e-01
4.35000000e+01	9.99578453e-01
4.45000000e+01	9.99567761e-01
4.55000000e+01	9.99556752e-01
4.65000000e+01	9.99545420e-01
4.75000000e+01	9.99533759e-01
4.85000000e+01	9.99521765e-01
4.95000000e+01	9.99509433e-01
5.05000000e+01	9.99496757e-01
5.15000000e+01	9.99483732e-01
5.25000000e+01	9.99470352e-01
5.35000000e+01	9.99456612e-01
5.45000000e+01	9.99442507e-01
5.55000000e+01	9.99428030e-01
5.65000000e+01	9.99413176e-01
5.75000000e+01	9.99397938e-01
5.85000000e+01	9.99382312e-01
5.95000000e+01	9.99366291e-01
6.05000000e+01	9.99349868e-01
6.15000000e+01	9.99333038e-01
6.25000000e+01	9.99315795e-01
6.35000000e+01	9.99298132e-01
6.45000000e+01	9.99280042e-01
6.55000000e+01	9.99261520e-01
6.65000000e+01	9.99242559e-01
6.75000000e+01	9.99223152e-01
6.85000000e+01	9.99203293e-01
6.95000000e+01	9.99182975e-01
7.05000000e+01	9.99162191e-01
7.15000000e+01	9.99140935e-01
7.25000000e+01	9.99119200e-01
7.35000000e+01	9.99096978e-01
7.45000000e+01	9.99074263e-01
7.55000000e+01	9.99051048e-01
7.65000000e+01	9.99027326e-01
7.75000000e+01	9.99003090e-01
7.85000000e+01	9.98978333e-01
7.95000000e+01	9.98953047e-01
8.05000000e+01	9.98927226e-01
8.15000000e+01	9.98900861e-01
8.25000000e+01	9.98873947e-01
8.35000000e+01	9.98846476e-01
8.45000000e+01	9.98818440e-01
8.55000000e+01	9.98789833e-01
8.65000000e+01	9.98760646e-01
8.75000000e+01	9.98730873e-01
8.85000000e+01	9.98700506e-01
8.95000000e+01	9.98669537e-01
9.05000000e+01	9.98637960e-01
9.15000000e+01	9.98605767e-01
9.25000000e+01	9.98572950e-01
9.35000000e+01	9.98539502e-01
9.45000000e+01	9.98505416e-01
9.55000000e+01	9.98470684e-01
9.65000000e+01	9.98435298e-01
9.75000000e+01	9.98399252e-01
9.85000000e+01	9.98362538e-01
9.95000000e+01	9.98325148e-01
1.00500000e+02	9.98287075e-01
1.01500000e+02	9.98248311e-01
1.02500000e+02	9.98208849e-01
1.03500000e+02	9.98168682e-01
1.04500000e+02	9.98127802e-01
1.05500000e+02	9.98086201e-01
1.06500000e+02	9.98043873e-01
1.07500000e+02	9.98000810e-01
1.08500000e+02	9.97957004e-01
1.09500000e+02	9.97912448e-01
1.10500000e+02	9.97867136e-01
1.11500000e+02	9.97821058e-01
1.12500000e+02	9.97774209e-01
1.13500000e+02	9.97726581e-01
1.14500000e+02	9.97678167e-01
1.15500000e+02	9.97628958e-01
1.16500000e+02	9.97578949e-01
1.17500000e+02	9.97528132e-01
1.18500000e+02	9.97476499e-01
1.19500000e+02	9.97424044e-01
1.20500000e+02	9.97370759e-01
1.21500000e+02	9.97316637e-01
1.22500000e+02	9.97261672e-01
1.23500000e+02	9.97205855e-01
1.24500000e+02	9.97149179e-01
1.25500000e+02	9.97091639e-01
1.26500000e+02	9.97033226e-01
1.27500000e+02	9.96973934e-01
1.28500000e+02	9.96913755e-01
1.29500000e+02	9.96852682e-01
1.30500000e+02	9.96790709e-01
1.31500000e+02	9.96727828e-01
1.32500000e+02	9.96664032e-01
1.33500000e+02	9.96599315e-01
1.34500000e+02	9.96533669e-01
1.35500000e+02	9.96467087e-01
1.36500000e+02	9.96399562e-01
1.37500000e+02	9.96331088e-01
1.38500000e+02	9.96261656e-01
1.39500000e+02	9.96191260e-01
1.40500000e+02	9.96119893e-01
1.41500000e+02	9.96047548e-01
1.42500000e+02	9.95974217e-01
1.43500000e+02	9.95899893e-01
1.44500000e+02	9.95824570e-01
1.45500000e+02	9.95748240e-01
1.46500000e+02	9.95670895e-01
1.47500000e+02	9.95592528e-01
1.48500000e+02	9.95513133e-01
1.49500000e+02	9.95432700e-01
1.50500000e+02	9.95351224e-01
1.51500000e+02	9.95268695e-01
1.52500000e+02	9.95185108e-01
1.53500000e+02	9.95100453e-01
1.54500000e+02	9.95014723e-01
1.55500000e+02	9.94927910e-01
1.56500000e+02	9.94840007e-01
1.57500000e+02	9.94751004e-01
1.58500000e+02	9.94660894e-01
1.59500000e+02	9.94569669e-01
1.60500000e+02	9.94477319e-01
1.61500000e+02	9.94383836e-01
1.62500000e+02	9.94289212e-01
1.63500000e+02	9.94193438e-01
1.64500000e+02	9.94096504e-01
1.65500000e+02	9.93998401e-01
1.66500000e+02	9.93899121e-01
1.67500000e+02	9.93798653e-01
1.68500000e+02	9.93696987e-01
1.69500000e+02	9.93594114e-01
1.70500000e+02	9.93490023e-01
1.71500000e+02	9.93384705e-01
1.72500000e+02	9.93278148e-01
1.73500000e+02	9.93170342e-01
1.74500000e+02	9.93061275e-01
1.75500000e+02	9.92950936e-01
1.76500000e+02	9.92839315e-01
1.77500000e+02	9.92726398e-01
1.78500000e+02	9.92612174e-01
1.79500000e+02	9.92496630e-01
1.80500000e+02	9.92379754e-01
1.81500000e+02	9.92261532e-01
1.82500000e+02	9.92141952e-01
1.83500000e+02	9.92020999e-01
1.84500000e+02	9.91898659e-01
1.85500000e+02	9.91774919e-01
1.86500000e+02	9.91649763e-01
1.87500000e+02	9.91523177e-01
1.88500000e+02	9.91395144e-01
1.89500000e+02	9.91265650e-01
1.90500000e+02	9.91134677e-01
1.91500000e+02	9.91002209e-01
1.92500000e+02	9.90868229e-01
1.93500000e+02	9.90732719e-01
1.94500000e+02	9.90595661e-01
1.95500000e+02	9.90457037e-01
1.96500000e+02	9.90316829e-01
1.97500000e+02	9.90175015e-01
1.98500000e+02	9.90031577e-01
1.99500000e+02	9.89886494e-01
2.00500000e+02	9.89739746e-01
2.01500000e+02	9.89591310e-01
2.02500000e+02	9.89441164e-01
2.03500000e+02	9.89289287e-01
2.04500000e+02	9.89135655e-01
2.05500000e+02	9.88980243e-01
2.06500000e+02	9.88823029e-01
2.07500000e+02	9.88663987e-01
2.08500000e+02	9.88503091e-01
2.09500000e+02	9.88340316e-01
2.10500000e+02	9.88175634e-01
2.11500000e+02	9.88009019e-01
2.12500000e+02	9.87840441e-01
2.13500000e+02	9.87669873e-01
2.14500000e+02	9.87497285e-01
2.15500000e+02	9.87322647e-01
2.16500000e+02	9.87145927e-01
2.17500000e+02	9.86967095e-01
2.18500000e+02	9.86786119e-01
2.19500000e+02	9.86602964e-01
2.20500000e+02	9.86417598e-01
2.21500000e+02	9.86229985e-01
2.22500000e+02	9.86040091e-01
2.23500000e+02	9.85847880e-01
2.24500000e+02	9.85653314e-01
2.25500000e+02	9.85456355e-01
2.26500000e+02	9.85256966e-01
2.27500000e+02	9.85055107e-01
2.28500000e+02	9.84850737e-01
2.29500000e+02	9.84643815e-01
2.30500000e+02	9.84434300e-01
2.31500000e+02	9.84222149e-01
2.32500000e+02	9.84007317e-01
2.33500000e+02	9.83789761e-01
2.34500000e+02	9.83569434e-01
2.35500000e+02	9.83346290e-01
2.36500000e+02	9.83120281e-01
2.37500000e+02	9.82891359e-01
2.38500000e+02	9.82659475e-01
2.39500000e+02	9.82424577e-01
2.40500000e+02	9.82186616e-01
2.41500000e+02	9.81945537e-01
2.42500000e+02	9.81701288e-01
2.43500000e+02	9.81453814e-01
2.44500000e+02	9.81203060e-01
2.45500000e+02	9.80948969e-01
2.46500000e+02	9.80691482e-01
2.47500000e+02	9.80430542e-01
2.48500000e+02	9.80166088e-01
2.49500000e+02	9.79898059e-01
2.50500000e+02	9.79626393e-01
2.51500000e+02	9.79351027e-01
2.52500000e+02	9.79071895e-01
2.53500000e+02	9.78788933e-01
2.54500000e+02	9.78502072e-01
2.55500000e+02	9.78211246e-01
2.56500000e+02	9.77916384e-01
2.57500000e+02	9.77617416e-01
2.58500000e+02	9.77314270e-01
2.59500000e+02	9.77006872e-01
2.60500000e+02	9.76695149e-01
2.61500000e+02	9.76379024e-01
2.62500000e+02	9.76058419e-01
2.63500000e+02	9.75733257e-01
2.64500000e+02	9.75403458e-01
2.65500000e+02	9.75068939e-01
2.66500000e+02	9.74729619e-01
2.67500000e+02	9.74385413e-01
2.68500000e+02	9.74036235e-01
2.69500000e+02	9.73681999e-01
2.70500000e+02	9.73322615e-01
2.71500000e+02	9.72957994e-01
2.72500000e+02	9.72588044e-01
2.73500000e+02	9.72212671e-01
2.74500000e+02	9.71831781e-01
2.75500000e+02	9.71445277e-01
2.76500000e+02	9.71053062e-01
2.77500000e+02	9.70655036e-01
2.78500000e+02	9.70251096e-01
2.79500000e+02	9.69841141e-01
2.80500000e+02	9.69425066e-01
2.81500000e+02	9.69002763e-01
2.82500000e+02	9.68574125e-01
2.83500000e+02	9.68139041e-01
2.84500000e+02	9.67697400e-01
2.85500000e+02	9.67249088e-01
2.86500000e+02	9.66793989e-01
2.87500000e+02	9.66331986e-01
2.88500000e+02	9.65862959e-01
2.89500000e+02	9.65386787e-01
2.90500000e+02	9.64903346e-01
2.91500000e+02	9.64412512e-01
2.92500000e+02	9.63914156e-01
2.93500000e+02	9.63408150e-01
2.94500000e+02	9.62894361e-01
2.95500000e+02	9.62372656e-01
2.96500000e+02	9.61842900e-01
2.97500000e+02	9.61304954e-01
2.98500000e+02	9.60758678e-01
2.99500000e+02	9.60203929e-01
3.00500000e+02	9.59640564e-01
3.01500000e+02	9.59068434e-01
3.02500000e+02	9.58487391e-01
3.03500000e+02	9.57897282e-01
3.04500000e+02	9.57297955e-01
3.05500000e+02	9.56689252e-01
3.06500000e+02	9.56071015e-01
3.07500000e+02	9.55443082e-01
3.08500000e+02	9.54805289e-01
3.09500000e+02	9.54157470e-01
3.10500000e+02	9.53499456e-01
3.11500000e+02	9.52831075e-01
3.12500000e+02	9.52152154e-01
3.13500000e+02	9.51462515e-01
3.14500000e+02	9.50761979e-01
3.15500000e+02	9.50050364e-01
3.16500000e+02	9.49327484e-01
3.17500000e+02	9.48593153e-01
3.18500000e+02	9.47847180e-01
3.19500000e+02	9.47089371e-01
3.20500000e+02	9.46319531e-01
3.21500000e+02	9.45537460e-01
3.22500000e+02	9.44742957e-01
3.23500000e+02	9.43935817e-01
3.24500000e+02	9.43115832e-01
3.25500000e+02	9.42282791e-01
3.26500000e+02	9.41436481e-01
3.27500000e+02	9.40576686e-01
3.28500000e+02	9.39703185e-01
3.29500000e+02	9.38815757e-01
3.30500000e+02	9.37914174e-01
3.31500000e+02	9.36998209e-01
3.32500000e+02	9.36067629e-01
3.33500000e+02	9.35122200e-01
3.34500000e+02	9.34161684e-01
3.35500000e+02	9.33185838e-01
3.36500000e+02	9.32194419e-01
3.37500000e+02	9.31187180e-01
3.38500000e+02	9.30163869e-01
3.39500000e+02	9.29124232e-01
3.40500000e+02	9.28068013e-01
3.41500000e+02	9.26994951e-01
3.42500000e+02	9.25904783e-01
3.43500000e+02	9.24797243e-01
3.44500000e+02	9.23672060e-01
3.45500000e+02	9.22528962e-01
3.46500000e+02	9.21367672e-01
3.47500000e+02	9.20187912e-01
3.48500000e+02	9.18989399e-01
3.49500000e+02	9.17771847e-01
3.50500000e+02	9.16534969e-01
3.51500000e+02	9.15278472e-01
3.52500000e+02	9.14002061e-01
3.53500000e+02	9.12705440e-01
3.54500000e+02	9.11388306e-01
3.55500000e+02	9.10050357e-01
3.56500000e+02	9.08691285e-01
3.57500000e+02	9.07310780e-01
3.58500000e+02	9.05908531e-01
3.59500000e+02	9.04484222e-01
3.60500000e+02	9.03037535e-01
3.61500000e+02	9.01568148e-01
3.62500000e+02	9.00075738e-01
3.63500000e+02	8.98559979e-01
3.64500000e+02	8.97020542e-01
3.65500000e+02	8.95457096e-01
3.66500000e+02	8.93869306e-01
3.67500000e+02	8.92256837e-01
3.68500000e+02	8.90619349e-01
3.69500000e+02	8.88956503e-01
3.70500000e+02	8.87267955e-01
3.71500000e+02	8.85553361e-01
3.72500000e+02	8.83812372e-01
3.73500000e+02	8.82044642e-01
3.74500000e+02	8.80249818e-01
3.75500000e+02	8.78427549e-01
3.76500000e+02	8.76577481e-01
3.77500000e+02	8.74699258e-01
3.78500000e+02	8.72792524e-01
3.79500000e+02	8.70856921e-01
3.80500000e+02	8.68892091e-01
3.81500000e+02	8.66897673e-01
3.82500000e+02	8.64873306e-01
3.83500000e+02	8.62818630e-01
3.84500000e+02	8.60733283e-01
3.85500000e+02	8.58616901e-01
3.86500000e+02	8.56469123e-01
3.87500000e+02	8.54289587e-01
3.88500000e+02	8.52077930e-01
3.89500000e+02	8.49833789e-01
3.90500000e+02	8.47556804e-01
3.91500000e+02	8.45246613e-01
3.92500000e+02	8.42902857e-01
3.93500000e+02	8.40525176e-01
3.94500000e+02	8.38113212e-01
3.95500000e+02	8.35666610e-01
3.96500000e+02	8.33185014e-01
3.97500000e+02	8.30668072e-01
3.98500000e+02	8.28115434e-01
3.99500000e+02	8.25526750e-01
4.00500000e+02	8.22901676e-01
4.01500000e+02	8.20239868e-01
4.02500000e+02	8.17540987e-01
4.03500000e+02	8.14804696e-01
4.04500000e+02	8.12030662e-01
4.05500000e+02	8.09218557e-01
4.06500000e+02	8.06368056e-01
4.07500000e+02	8.03478838e-01
4.08500000e+02	8.00550587e-01
4.09500000e+02	7.97582993e-01
4.10500000e+02	7.94575751e-01
4.11500000e+02	7.91528560e-01
4.12500000e+02	7.88441128e-01
4.13500000e+02	7.85313165e-01
4.14500000e+02	7.82144392e-01
4.15500000e+02	7.78934534e-01
4.16500000e+02	7.75683324e-01
4.17500000e+02	7.72390503e-01
4.18500000e+02	7.69055821e-01
4.19500000e+02	7.65679033e-01
4.20500000e+02	7.62259907e-01
4.21500000e+02	7.58798217e-01
4.22500000e+02	7.55293747e-01
4.23500000e+02	7.51746293e-01
4.24500000e+02	7.48155659e-01
4.25500000e+02	7.44521662e-01
4.26500000e+02	7.40844127e-01
4.27500000e+02	7.37122895e-01
4.28500000e+02	7.33357815e-01
4.29500000e+02	7.29548752e-01
4.30500000e+02	7.25695583e-01
4.31500000e+02	7.21798199e-01
4.32500000e+02	7.17856503e-01
4.33500000e+02	7.13870418e-01
4.34500000e+02	7.09839876e-01
4.35500000e+02	7.05764831e-01
4.36500000e+02	7.01645250e-01
4.37500000e+02	6.97481119e-01
4.38500000e+02	6.93272441e-01
4.39500000e+02	6.89019237e-01
4.40500000e+02	6.84721550e-01
4.41500000e+02	6.80379442e-01
4.42500000e+02	6.75992995e-01
4.43500000e+02	6.71562314e-01
4.44500000e+02	6.67087526e-01
4.45500000e+02	6.62568781e-01
4.46500000e+02	6.58006257e-01
4.47500000e+02	6.53400152e-01
4.48500000e+02	6.48750695e-01
4.49500000e+02	6.44058141e-01
4.50500000e+02	6.39322773e-01
4.51500000e+02	6.34544905e-01
4.52500000e+02	6.29724881e-01
4.53500000e+02	6.24863078e-01
4.54500000e+02	6.19959907e-01
4.55500000e+02	6.15015814e-01
4.56500000e+02	6.10031279e-01
4.57500000e+02	6.05006822e-01
4.58500000e+02	5.99943003e-01
4.59500000e+02	5.94840421e-01
4.60500000e+02	5.89699719e-01
4.61500000e+02	5.84521583e-01
4.62500000e+02	5.79306747e-01
4.63500000e+02	5.74055991e-01
4.64500000e+02	5.68770146e-01
4.65500000e+02	5.63450092e-01
4.66500000e+02	5.58096766e-01
4.67500000e+02	5.52711159e-01
4.68500000e+02	5.47294318e-01
4.69500000e+02	5.41847352e-01
4.70500000e+02	5.36371430e-01
4.71500000e+02	5.30867786e-01
4.72500000e+02	5.25337719e-01
4.73500000e+02	5.19782595e-01
4.74500000e+02	5.14203851e-01
4.75500000e+02	5.08602997e-01
4.76500000e+02	5.02981615e-01
4.77500000e+02	4.97341362e-01
4.78500000e+02	4.91683975e-01
4.79500000e+02	4.86011268e-01
4.80500000e+02	4.80325137e-01
4.81500000e+02	4.74627560e-01
4.82500000e+02	4.68920595e-01
4.83500000e+02	4.63206388e-01
4.84500000e+02	4.57487166e-01
4.85500000e+02	4.51765244e-01
4.86500000e+02	4.46043019e-01
4.87500000e+02	4.40322973e-01
4.88500000e+02	4.34607672e-01
4.89500000e+02	4.28899762e-01
4.90500000e+02	4.23201971e-01
4.91500000e+02	4.17517103e-01
4.92500000e+02	4.11848037e-01
4.93500000e+02	4.06197723e-01
4.94500000e+02	4.00569175e-01
4.95500000e+02	3.94965472e-01
4.96500000e+02	3.89389745e-01
4.97500000e+02	3.83845173e-01
4.98500000e+02	3.78334980e-01
4.99500000e+02	3.72862418e-01
5.00500000e+02	3.67430766e-01
5.01500000e+02	3.62043316e-01
5.02500000e+02	3.56703363e-01
5.03500000e+02	3.51414194e-01
5.04500000e+02	3.46179078e-01
5.05500000e+02	3.41001250e-01
5.06500000e+02	3.35883900e-01
5.07500000e+02	3.30830158e-01
5.08500000e+02	3.25843085e-01
5.09500000e+02	3.20925652e-01
5.10500000e+02	3.16080733e-01
5.11500000e+02	3.11311085e-01
5.12500000e+02	3.06619339e-01
5.13500000e+02	3.02007985e-01
5.14500000e+02	2.97479362e-01
5.15500000e+02	2.93035643e-01
5.16500000e+02	2.88678823e-01
5.17500000e+02	2.84410717e-01
5.18500000e+02	2.80232944e-01
5.19500000e+02	2.76146922e-01
5.20500000e+02	2.72153865e-01
5.21500000e+02	2.68254774e-01
5.22500000e+02	2.64450441e-01
5.23500000e+02	2.60741440e-01
5.24500000e+02	2.57128136e-01
5.25500000e+02	2.53610682e-01
5.26500000e+02	2.50189023e-01
5.27500000e+02	2.46862904e-01
5.28500000e+02	2.43631876e-01
5.29500000e+02	2.40495300e-01
5.30500000e+02	2.37452362e-01
5.31500000e+02	2.34502080e-01
5.32500000e+02	2.31643314e-01
5.33500000e+02	2.28874779e-01
5.34500000e+02	2.26195057e-01
5.35500000e+02	2.23602608e-01
5.36500000e+02	2.21095786e-01
5.37500000e+02	2.18672847e-01
5.38500000e+02	2.16331963e-01
5.39500000e+02	2.14071236e-01
5.40500000e+02	2.11888710e-01
5.41500000e+02	2.09782379e-01
5.42500000e+02	2.07750201e-01
5.43500000e+02	2.05790109e-01
5.44500000e+02	2.03900015e-01
5.45500000e+02	2.02077829e-01
5.46500000e+02	2.00321457e-01
5.47500000e+02	1.98628816e-01
5.48500000e+02	1.96997837e-01
5.49500000e+02	1.95426473e-01
5.50500000e+02	1.93912704e-01
5.51500000e+02	1.92454540e-01
5.52500000e+02	1.91050030e-01
5.53500000e+02	1.89697261e-01
5.54500000e+02	1.88394361e-01
5.55500000e+02	1.87139506e-01
5.56500000e+02	1.85930918e-01
5.57500000e+02	1.84766867e-01
5.58500000e+02	1.83645674e-01
5.59500000e+02	1.82565710e-01
5.60500000e+02	1.81525397e-01
5.61500000e+02	1.80523208e-01
5.62500000e+02	1.79557667e-01
5.63500000e+02	1.78627350e-01
5.64500000e+02	1.77730882e-01
5.65500000e+02	1.76866938e-01
5.66500000e+02	1.76034240e-01
5.67500000e+02	1.75231561e-01
5.68500000e+02	1.74457716e-01
5.69500000e+02	1.73711570e-01
5.70500000e+02	1.72992030e-01
5.71500000e+02	1.72298044e-01
5.72500000e+02	1.71628605e-01
5.73500000e+02	1.70982744e-01
5.74500000e+02	1.70359531e-01
5.75500000e+02	1.69758076e-01
5.76500000e+02	1.69177521e-01
5.77500000e+02	1.68617047e-01
5.78500000e+02	1.68075865e-01
5.79500000e+02	1.67553221e-01
5.80500000e+02	1.67048392e-01
5.81500000e+02	1.66560682e-01
5.82500000e+02	1.66089426e-01
5.83500000e+02	1.65633987e-01
5.84500000e+02	1.65193752e-01
5.85500000e+02	1.64768135e-01
5.86500000e+02	1.64356573e-01
5.87500000e+02	1.63958528e-01
5.88500000e+02	1.63573483e-01
5.89500000e+02	1.63200941e-01
5.90500000e+02	1.62840427e-01
5.91500000e+02	1.62491485e-01
5.92500000e+02	1.62153679e-01
5.93500000e+02	1.61826588e-01
5.94500000e+02	1.61509810e-01
5.95500000e+02	1.61202959e-01
5.96500000e+02	1.60905665e-01
5.97500000e+02	1.60617572e-01
5.98500000e+02	1.60338339e-01
5.99500000e+02	1.60067639e-01
6.00500000e+02	1.59805158e-01
6.01500000e+02	1.59550593e-01
6.02500000e+02	1.59303656e-01
6.03500000e+02	1.59064069e-01
6.04500000e+02	1.58831563e-01
6.05500000e+02	1.58605884e-01
6.06500000e+02	1.58386785e-01
6.07500000e+02	1.58174029e-01
6.08500000e+02	1.57967389e-01
6.09500000e+02	1.57766647e-01
6.10500000e+02	1.57571594e-01
6.11500000e+02	1.57382029e-01
6.12500000e+02	1.57197758e-01
6.13500000e+02	1.57018595e-01
6.14500000e+02	1.56844363e-01
6.15500000e+02	1.56674889e-01
6.16500000e+02	1.56510010e-01
6.17500000e+02	1.56349568e-01
6.18500000e+02	1.56193411e-01
6.19500000e+02	1.56041393e-01
6.20500000e+02	1.55893375e-01
6.21500000e+02	1.55749221e-01
6.22500000e+02	1.55608803e-01
6.23500000e+02	1.55471998e-01
6.24500000e+02	1.55338689e-01
6.25500000e+02	1.55208761e-01
6.26500000e+02	1.55082107e-01
6.27500000e+02	1.54958620e-01
6.28500000e+02	1.54838202e-01
6.29500000e+02	1.54720758e-01
6.30500000e+02	1.54606194e-01
6.31500000e+02	1.54494425e-01
6.32500000e+02	1.54385367e-01
6.33500000e+02	1.54278939e-01
6.34500000e+02	1.54175065e-01
6.35500000e+02	1.54073673e-01
6.36500000e+02	1.53974693e-01
6.37500000e+02	1.53878059e-01
6.38500000e+02	1.53783708e-01
6.39500000e+02	1.53691580e-01
6.40500000e+02	1.53601618e-01
6.41500000e+02	1.53513767e-01
6.42500000e+02	1.53427977e-01
6.43500000e+02	1.53344198e-01
6.44500000e+02	1.53262385e-01
6.45500000e+02	1.53182493e-01
6.46500000e+02	1.53104481e-01
6.47500000e+02	1.53028310e-01
6.48500000e+02	1.52953943e-01
6.49500000e+02	1.52881345e-01
6.50500000e+02	1.52810483e-01
6.51500000e+02	1.52741325e-01
6.52500000e+02	1.52673844e-01
6.53500000e+02	1.52608011e-01
6.54500000e+02	1.52543801e-01
6.55500000e+02	1.52481190e-01
6.56500000e+02	1.52420155e-01
6.57500000e+02	1.52360674e-01
6.58500000e+02	1.52302729e-01
6.59500000e+02	1.52246300e-01
6.60500000e+02	1.52191371e-01
