# Profil de Te au temps 9.000000000000108e-12 
# simu : /Volumes/MERCURE/JOBS/Zeq1_tanh_50mic_5e20_B0_20ps/GNU/Te@y-c.set
# col 0 : abscisse (um)
# col 1 : Te (keV)
5.00000000e-01	9.99932520e-01
1.50000000e+00	9.99932427e-01
2.50000000e+00	9.99932255e-01
3.50000000e+00	9.99931995e-01
4.50000000e+00	9.99931644e-01
5.50000000e+00	9.99931204e-01
6.50000000e+00	9.99930676e-01
7.50000000e+00	9.99930060e-01
8.50000000e+00	9.99929353e-01
9.50000000e+00	9.99928557e-01
1.05000000e+01	9.99927669e-01
1.15000000e+01	9.99926690e-01
1.25000000e+01	9.99925618e-01
1.35000000e+01	9.99924453e-01
1.45000000e+01	9.99923192e-01
1.55000000e+01	9.99921836e-01
1.65000000e+01	9.99920383e-01
1.75000000e+01	9.99918831e-01
1.85000000e+01	9.99917178e-01
1.95000000e+01	9.99915425e-01
2.05000000e+01	9.99913568e-01
2.15000000e+01	9.99911606e-01
2.25000000e+01	9.99909538e-01
2.35000000e+01	9.99907361e-01
2.45000000e+01	9.99905074e-01
2.55000000e+01	9.99902674e-01
2.65000000e+01	9.99900159e-01
2.75000000e+01	9.99897527e-01
2.85000000e+01	9.99894776e-01
2.95000000e+01	9.99891903e-01
3.05000000e+01	9.99888906e-01
3.15000000e+01	9.99885782e-01
3.25000000e+01	9.99882529e-01
3.35000000e+01	9.99879143e-01
3.45000000e+01	9.99875621e-01
3.55000000e+01	9.99871961e-01
3.65000000e+01	9.99868160e-01
3.75000000e+01	9.99864214e-01
3.85000000e+01	9.99860120e-01
3.95000000e+01	9.99855875e-01
4.05000000e+01	9.99851474e-01
4.15000000e+01	9.99846915e-01
4.25000000e+01	9.99842194e-01
4.35000000e+01	9.99837307e-01
4.45000000e+01	9.99832249e-01
4.55000000e+01	9.99827018e-01
4.65000000e+01	9.99821608e-01
4.75000000e+01	9.99816016e-01
4.85000000e+01	9.99810237e-01
4.95000000e+01	9.99804267e-01
5.05000000e+01	9.99798101e-01
5.15000000e+01	9.99791734e-01
5.25000000e+01	9.99785162e-01
5.35000000e+01	9.99778380e-01
5.45000000e+01	9.99771383e-01
5.55000000e+01	9.99764165e-01
5.65000000e+01	9.99756722e-01
5.75000000e+01	9.99749047e-01
5.85000000e+01	9.99741136e-01
5.95000000e+01	9.99732984e-01
6.05000000e+01	9.99724583e-01
6.15000000e+01	9.99715929e-01
6.25000000e+01	9.99707016e-01
6.35000000e+01	9.99697837e-01
6.45000000e+01	9.99688387e-01
6.55000000e+01	9.99678659e-01
6.65000000e+01	9.99668646e-01
6.75000000e+01	9.99658343e-01
6.85000000e+01	9.99647742e-01
6.95000000e+01	9.99636838e-01
7.05000000e+01	9.99625622e-01
7.15000000e+01	9.99614089e-01
7.25000000e+01	9.99602230e-01
7.35000000e+01	9.99590040e-01
7.45000000e+01	9.99577510e-01
7.55000000e+01	9.99564633e-01
7.65000000e+01	9.99551402e-01
7.75000000e+01	9.99537809e-01
7.85000000e+01	9.99523846e-01
7.95000000e+01	9.99509506e-01
8.05000000e+01	9.99494780e-01
8.15000000e+01	9.99479661e-01
8.25000000e+01	9.99464140e-01
8.35000000e+01	9.99448208e-01
8.45000000e+01	9.99431858e-01
8.55000000e+01	9.99415081e-01
8.65000000e+01	9.99397869e-01
8.75000000e+01	9.99380212e-01
8.85000000e+01	9.99362102e-01
8.95000000e+01	9.99343530e-01
9.05000000e+01	9.99324487e-01
9.15000000e+01	9.99304964e-01
9.25000000e+01	9.99284951e-01
9.35000000e+01	9.99264439e-01
9.45000000e+01	9.99243420e-01
9.55000000e+01	9.99221883e-01
9.65000000e+01	9.99199819e-01
9.75000000e+01	9.99177218e-01
9.85000000e+01	9.99154070e-01
9.95000000e+01	9.99130366e-01
1.00500000e+02	9.99106095e-01
1.01500000e+02	9.99081249e-01
1.02500000e+02	9.99055816e-01
1.03500000e+02	9.99029786e-01
1.04500000e+02	9.99003150e-01
1.05500000e+02	9.98975896e-01
1.06500000e+02	9.98948015e-01
1.07500000e+02	9.98919497e-01
1.08500000e+02	9.98890330e-01
1.09500000e+02	9.98860504e-01
1.10500000e+02	9.98830009e-01
1.11500000e+02	9.98798833e-01
1.12500000e+02	9.98766967e-01
1.13500000e+02	9.98734399e-01
1.14500000e+02	9.98701119e-01
1.15500000e+02	9.98667116e-01
1.16500000e+02	9.98632378e-01
1.17500000e+02	9.98596895e-01
1.18500000e+02	9.98560656e-01
1.19500000e+02	9.98523650e-01
1.20500000e+02	9.98485866e-01
1.21500000e+02	9.98447293e-01
1.22500000e+02	9.98407920e-01
1.23500000e+02	9.98367735e-01
1.24500000e+02	9.98326727e-01
1.25500000e+02	9.98284886e-01
1.26500000e+02	9.98242200e-01
1.27500000e+02	9.98198658e-01
1.28500000e+02	9.98154248e-01
1.29500000e+02	9.98108960e-01
1.30500000e+02	9.98062782e-01
1.31500000e+02	9.98015703e-01
1.32500000e+02	9.97967712e-01
1.33500000e+02	9.97918797e-01
1.34500000e+02	9.97868948e-01
1.35500000e+02	9.97818153e-01
1.36500000e+02	9.97766400e-01
1.37500000e+02	9.97713679e-01
1.38500000e+02	9.97659979e-01
1.39500000e+02	9.97605288e-01
1.40500000e+02	9.97549594e-01
1.41500000e+02	9.97492888e-01
1.42500000e+02	9.97435157e-01
1.43500000e+02	9.97376390e-01
1.44500000e+02	9.97316577e-01
1.45500000e+02	9.97255706e-01
1.46500000e+02	9.97193766e-01
1.47500000e+02	9.97130746e-01
1.48500000e+02	9.97066634e-01
1.49500000e+02	9.97001421e-01
1.50500000e+02	9.96935094e-01
1.51500000e+02	9.96867642e-01
1.52500000e+02	9.96799055e-01
1.53500000e+02	9.96729322e-01
1.54500000e+02	9.96658431e-01
1.55500000e+02	9.96586371e-01
1.56500000e+02	9.96513132e-01
1.57500000e+02	9.96438702e-01
1.58500000e+02	9.96363071e-01
1.59500000e+02	9.96286227e-01
1.60500000e+02	9.96208159e-01
1.61500000e+02	9.96128856e-01
1.62500000e+02	9.96048308e-01
1.63500000e+02	9.95966503e-01
1.64500000e+02	9.95883431e-01
1.65500000e+02	9.95799079e-01
1.66500000e+02	9.95713437e-01
1.67500000e+02	9.95626494e-01
1.68500000e+02	9.95538239e-01
1.69500000e+02	9.95448660e-01
1.70500000e+02	9.95357746e-01
1.71500000e+02	9.95265486e-01
1.72500000e+02	9.95171868e-01
1.73500000e+02	9.95076882e-01
1.74500000e+02	9.94980514e-01
1.75500000e+02	9.94882755e-01
1.76500000e+02	9.94783592e-01
1.77500000e+02	9.94683013e-01
1.78500000e+02	9.94581007e-01
1.79500000e+02	9.94477561e-01
1.80500000e+02	9.94372664e-01
1.81500000e+02	9.94266303e-01
1.82500000e+02	9.94158465e-01
1.83500000e+02	9.94049139e-01
1.84500000e+02	9.93938312e-01
1.85500000e+02	9.93825970e-01
1.86500000e+02	9.93712101e-01
1.87500000e+02	9.93596692e-01
1.88500000e+02	9.93479729e-01
1.89500000e+02	9.93361198e-01
1.90500000e+02	9.93241086e-01
1.91500000e+02	9.93119379e-01
1.92500000e+02	9.92996062e-01
1.93500000e+02	9.92871120e-01
1.94500000e+02	9.92744540e-01
1.95500000e+02	9.92616305e-01
1.96500000e+02	9.92486401e-01
1.97500000e+02	9.92354811e-01
1.98500000e+02	9.92221519e-01
1.99500000e+02	9.92086510e-01
2.00500000e+02	9.91949766e-01
2.01500000e+02	9.91811270e-01
2.02500000e+02	9.91671004e-01
2.03500000e+02	9.91528952e-01
2.04500000e+02	9.91385093e-01
2.05500000e+02	9.91239410e-01
2.06500000e+02	9.91091884e-01
2.07500000e+02	9.90942494e-01
2.08500000e+02	9.90791221e-01
2.09500000e+02	9.90638043e-01
2.10500000e+02	9.90482940e-01
2.11500000e+02	9.90325890e-01
2.12500000e+02	9.90166870e-01
2.13500000e+02	9.90005858e-01
2.14500000e+02	9.89842831e-01
2.15500000e+02	9.89677763e-01
2.16500000e+02	9.89510632e-01
2.17500000e+02	9.89341410e-01
2.18500000e+02	9.89170073e-01
2.19500000e+02	9.88996594e-01
2.20500000e+02	9.88820945e-01
2.21500000e+02	9.88643099e-01
2.22500000e+02	9.88463026e-01
2.23500000e+02	9.88280697e-01
2.24500000e+02	9.88096082e-01
2.25500000e+02	9.87909150e-01
2.26500000e+02	9.87719869e-01
2.27500000e+02	9.87528205e-01
2.28500000e+02	9.87334126e-01
2.29500000e+02	9.87137597e-01
2.30500000e+02	9.86938582e-01
2.31500000e+02	9.86737046e-01
2.32500000e+02	9.86532951e-01
2.33500000e+02	9.86326259e-01
2.34500000e+02	9.86116931e-01
2.35500000e+02	9.85904926e-01
2.36500000e+02	9.85690205e-01
2.37500000e+02	9.85472723e-01
2.38500000e+02	9.85252439e-01
2.39500000e+02	9.85029308e-01
2.40500000e+02	9.84803285e-01
2.41500000e+02	9.84574322e-01
2.42500000e+02	9.84342374e-01
2.43500000e+02	9.84107389e-01
2.44500000e+02	9.83869320e-01
2.45500000e+02	9.83628114e-01
2.46500000e+02	9.83383719e-01
2.47500000e+02	9.83136082e-01
2.48500000e+02	9.82885148e-01
2.49500000e+02	9.82630860e-01
2.50500000e+02	9.82373161e-01
2.51500000e+02	9.82111992e-01
2.52500000e+02	9.81847294e-01
2.53500000e+02	9.81579004e-01
2.54500000e+02	9.81307060e-01
2.55500000e+02	9.81031397e-01
2.56500000e+02	9.80751950e-01
2.57500000e+02	9.80468652e-01
2.58500000e+02	9.80181433e-01
2.59500000e+02	9.79890225e-01
2.60500000e+02	9.79594954e-01
2.61500000e+02	9.79295549e-01
2.62500000e+02	9.78991933e-01
2.63500000e+02	9.78684032e-01
2.64500000e+02	9.78371766e-01
2.65500000e+02	9.78055057e-01
2.66500000e+02	9.77733823e-01
2.67500000e+02	9.77407981e-01
2.68500000e+02	9.77077447e-01
2.69500000e+02	9.76742134e-01
2.70500000e+02	9.76401954e-01
2.71500000e+02	9.76056818e-01
2.72500000e+02	9.75706634e-01
2.73500000e+02	9.75351309e-01
2.74500000e+02	9.74990747e-01
2.75500000e+02	9.74624851e-01
2.76500000e+02	9.74253523e-01
2.77500000e+02	9.73876660e-01
2.78500000e+02	9.73494162e-01
2.79500000e+02	9.73105922e-01
2.80500000e+02	9.72711835e-01
2.81500000e+02	9.72311791e-01
2.82500000e+02	9.71905679e-01
2.83500000e+02	9.71493387e-01
2.84500000e+02	9.71074800e-01
2.85500000e+02	9.70649800e-01
2.86500000e+02	9.70218269e-01
2.87500000e+02	9.69780086e-01
2.88500000e+02	9.69335125e-01
2.89500000e+02	9.68883263e-01
2.90500000e+02	9.68424370e-01
2.91500000e+02	9.67958317e-01
2.92500000e+02	9.67484970e-01
2.93500000e+02	9.67004196e-01
2.94500000e+02	9.66515856e-01
2.95500000e+02	9.66019810e-01
2.96500000e+02	9.65515917e-01
2.97500000e+02	9.65004032e-01
2.98500000e+02	9.64484008e-01
2.99500000e+02	9.63955695e-01
3.00500000e+02	9.63418941e-01
3.01500000e+02	9.62873591e-01
3.02500000e+02	9.62319487e-01
3.03500000e+02	9.61756470e-01
3.04500000e+02	9.61184377e-01
3.05500000e+02	9.60603042e-01
3.06500000e+02	9.60012298e-01
3.07500000e+02	9.59411972e-01
3.08500000e+02	9.58801891e-01
3.09500000e+02	9.58181880e-01
3.10500000e+02	9.57551757e-01
3.11500000e+02	9.56911340e-01
3.12500000e+02	9.56260444e-01
3.13500000e+02	9.55598881e-01
3.14500000e+02	9.54926460e-01
3.15500000e+02	9.54242984e-01
3.16500000e+02	9.53548258e-01
3.17500000e+02	9.52842080e-01
3.18500000e+02	9.52124247e-01
3.19500000e+02	9.51394551e-01
3.20500000e+02	9.50652782e-01
3.21500000e+02	9.49898726e-01
3.22500000e+02	9.49132168e-01
3.23500000e+02	9.48352886e-01
3.24500000e+02	9.47560657e-01
3.25500000e+02	9.46755255e-01
3.26500000e+02	9.45936450e-01
3.27500000e+02	9.45104006e-01
3.28500000e+02	9.44257689e-01
3.29500000e+02	9.43397256e-01
3.30500000e+02	9.42522464e-01
3.31500000e+02	9.41633066e-01
3.32500000e+02	9.40728809e-01
3.33500000e+02	9.39809440e-01
3.34500000e+02	9.38874700e-01
3.35500000e+02	9.37924327e-01
3.36500000e+02	9.36958055e-01
3.37500000e+02	9.35975616e-01
3.38500000e+02	9.34976735e-01
3.39500000e+02	9.33961138e-01
3.40500000e+02	9.32928542e-01
3.41500000e+02	9.31878665e-01
3.42500000e+02	9.30811219e-01
3.43500000e+02	9.29725912e-01
3.44500000e+02	9.28622448e-01
3.45500000e+02	9.27500530e-01
3.46500000e+02	9.26359855e-01
3.47500000e+02	9.25200116e-01
3.48500000e+02	9.24021003e-01
3.49500000e+02	9.22822202e-01
3.50500000e+02	9.21603397e-01
3.51500000e+02	9.20364266e-01
3.52500000e+02	9.19104484e-01
3.53500000e+02	9.17823723e-01
3.54500000e+02	9.16521651e-01
3.55500000e+02	9.15197933e-01
3.56500000e+02	9.13852229e-01
3.57500000e+02	9.12484197e-01
3.58500000e+02	9.11093491e-01
3.59500000e+02	9.09679761e-01
3.60500000e+02	9.08242654e-01
3.61500000e+02	9.06781815e-01
3.62500000e+02	9.05296883e-01
3.63500000e+02	9.03787496e-01
3.64500000e+02	9.02253289e-01
3.65500000e+02	9.00693891e-01
3.66500000e+02	8.99108932e-01
3.67500000e+02	8.97498037e-01
3.68500000e+02	8.95860827e-01
3.69500000e+02	8.94196923e-01
3.70500000e+02	8.92505941e-01
3.71500000e+02	8.90787496e-01
3.72500000e+02	8.89041200e-01
3.73500000e+02	8.87266662e-01
3.74500000e+02	8.85463489e-01
3.75500000e+02	8.83631288e-01
3.76500000e+02	8.81769660e-01
3.77500000e+02	8.79878209e-01
3.78500000e+02	8.77956533e-01
3.79500000e+02	8.76004231e-01
3.80500000e+02	8.74020900e-01
3.81500000e+02	8.72006135e-01
3.82500000e+02	8.69959531e-01
3.83500000e+02	8.67880682e-01
3.84500000e+02	8.65769182e-01
3.85500000e+02	8.63624621e-01
3.86500000e+02	8.61446594e-01
3.87500000e+02	8.59234691e-01
3.88500000e+02	8.56988506e-01
3.89500000e+02	8.54707631e-01
3.90500000e+02	8.52391659e-01
3.91500000e+02	8.50040184e-01
3.92500000e+02	8.47652800e-01
3.93500000e+02	8.45229105e-01
3.94500000e+02	8.42768696e-01
3.95500000e+02	8.40271172e-01
3.96500000e+02	8.37736135e-01
3.97500000e+02	8.35163189e-01
3.98500000e+02	8.32551941e-01
3.99500000e+02	8.29902000e-01
4.00500000e+02	8.27212978e-01
4.01500000e+02	8.24484493e-01
4.02500000e+02	8.21716163e-01
4.03500000e+02	8.18907614e-01
4.04500000e+02	8.16058474e-01
4.05500000e+02	8.13168377e-01
4.06500000e+02	8.10236961e-01
4.07500000e+02	8.07263871e-01
4.08500000e+02	8.04248757e-01
4.09500000e+02	8.01191276e-01
4.10500000e+02	7.98091091e-01
4.11500000e+02	7.94947873e-01
4.12500000e+02	7.91761299e-01
4.13500000e+02	7.88531055e-01
4.14500000e+02	7.85256835e-01
4.15500000e+02	7.81938342e-01
4.16500000e+02	7.78575289e-01
4.17500000e+02	7.75167396e-01
4.18500000e+02	7.71714395e-01
4.19500000e+02	7.68216030e-01
4.20500000e+02	7.64672053e-01
4.21500000e+02	7.61082230e-01
4.22500000e+02	7.57446337e-01
4.23500000e+02	7.53764164e-01
4.24500000e+02	7.50035514e-01
4.25500000e+02	7.46260204e-01
4.26500000e+02	7.42438064e-01
4.27500000e+02	7.38568939e-01
4.28500000e+02	7.34652691e-01
4.29500000e+02	7.30689197e-01
4.30500000e+02	7.26678350e-01
4.31500000e+02	7.22620062e-01
4.32500000e+02	7.18514260e-01
4.33500000e+02	7.14360893e-01
4.34500000e+02	7.10159928e-01
4.35500000e+02	7.05911351e-01
4.36500000e+02	7.01615170e-01
4.37500000e+02	6.97271416e-01
4.38500000e+02	6.92880140e-01
4.39500000e+02	6.88441417e-01
4.40500000e+02	6.83955347e-01
4.41500000e+02	6.79422054e-01
4.42500000e+02	6.74841690e-01
4.43500000e+02	6.70214432e-01
4.44500000e+02	6.65540485e-01
4.45500000e+02	6.60820086e-01
4.46500000e+02	6.56053498e-01
4.47500000e+02	6.51241018e-01
4.48500000e+02	6.46382975e-01
4.49500000e+02	6.41479733e-01
4.50500000e+02	6.36531688e-01
4.51500000e+02	6.31539276e-01
4.52500000e+02	6.26502968e-01
4.53500000e+02	6.21423275e-01
4.54500000e+02	6.16300750e-01
4.55500000e+02	6.11135986e-01
4.56500000e+02	6.05929623e-01
4.57500000e+02	6.00682343e-01
4.58500000e+02	5.95394878e-01
4.59500000e+02	5.90068008e-01
4.60500000e+02	5.84702563e-01
4.61500000e+02	5.79299427e-01
4.62500000e+02	5.73859538e-01
4.63500000e+02	5.68383891e-01
4.64500000e+02	5.62873538e-01
4.65500000e+02	5.57329594e-01
4.66500000e+02	5.51753235e-01
4.67500000e+02	5.46145702e-01
4.68500000e+02	5.40508301e-01
4.69500000e+02	5.34842411e-01
4.70500000e+02	5.29149478e-01
4.71500000e+02	5.23431023e-01
4.72500000e+02	5.17688639e-01
4.73500000e+02	5.11923999e-01
4.74500000e+02	5.06138853e-01
4.75500000e+02	5.00335032e-01
4.76500000e+02	4.94514446e-01
4.77500000e+02	4.88679092e-01
4.78500000e+02	4.82831049e-01
4.79500000e+02	4.76972482e-01
4.80500000e+02	4.71105641e-01
4.81500000e+02	4.65232866e-01
4.82500000e+02	4.59356579e-01
4.83500000e+02	4.53479292e-01
4.84500000e+02	4.47603600e-01
4.85500000e+02	4.41732186e-01
4.86500000e+02	4.35867812e-01
4.87500000e+02	4.30013324e-01
4.88500000e+02	4.24171645e-01
4.89500000e+02	4.18345772e-01
4.90500000e+02	4.12538774e-01
4.91500000e+02	4.06753785e-01
4.92500000e+02	4.00994001e-01
4.93500000e+02	3.95262671e-01
4.94500000e+02	3.89563090e-01
4.95500000e+02	3.83898597e-01
4.96500000e+02	3.78272558e-01
4.97500000e+02	3.72688363e-01
4.98500000e+02	3.67149412e-01
4.99500000e+02	3.61659106e-01
5.00500000e+02	3.56220837e-01
5.01500000e+02	3.50837971e-01
5.02500000e+02	3.45513841e-01
5.03500000e+02	3.40251729e-01
5.04500000e+02	3.35054855e-01
5.05500000e+02	3.29926363e-01
5.06500000e+02	3.24869305e-01
5.07500000e+02	3.19886629e-01
5.08500000e+02	3.14981167e-01
5.09500000e+02	3.10155615e-01
5.10500000e+02	3.05412526e-01
5.11500000e+02	3.00754296e-01
5.12500000e+02	2.96183151e-01
5.13500000e+02	2.91701137e-01
5.14500000e+02	2.87310112e-01
5.15500000e+02	2.83011735e-01
5.16500000e+02	2.78807462e-01
5.17500000e+02	2.74698536e-01
5.18500000e+02	2.70685989e-01
5.19500000e+02	2.66770634e-01
5.20500000e+02	2.62953067e-01
5.21500000e+02	2.59233669e-01
5.22500000e+02	2.55612606e-01
5.23500000e+02	2.52089833e-01
5.24500000e+02	2.48665100e-01
5.25500000e+02	2.45337960e-01
5.26500000e+02	2.42107775e-01
5.27500000e+02	2.38973727e-01
5.28500000e+02	2.35934826e-01
5.29500000e+02	2.32989923e-01
5.30500000e+02	2.30137719e-01
5.31500000e+02	2.27376782e-01
5.32500000e+02	2.24705552e-01
5.33500000e+02	2.22122361e-01
5.34500000e+02	2.19625440e-01
5.35500000e+02	2.17212937e-01
5.36500000e+02	2.14882923e-01
5.37500000e+02	2.12633410e-01
5.38500000e+02	2.10462358e-01
5.39500000e+02	2.08367690e-01
5.40500000e+02	2.06347298e-01
5.41500000e+02	2.04399059e-01
5.42500000e+02	2.02520836e-01
5.43500000e+02	2.00710495e-01
5.44500000e+02	1.98965908e-01
5.45500000e+02	1.97284959e-01
5.46500000e+02	1.95665554e-01
5.47500000e+02	1.94105626e-01
5.48500000e+02	1.92603136e-01
5.49500000e+02	1.91156083e-01
5.50500000e+02	1.89762504e-01
5.51500000e+02	1.88420480e-01
5.52500000e+02	1.87128133e-01
5.53500000e+02	1.85883636e-01
5.54500000e+02	1.84685210e-01
5.55500000e+02	1.83531123e-01
5.56500000e+02	1.82419699e-01
5.57500000e+02	1.81349309e-01
5.58500000e+02	1.80318378e-01
5.59500000e+02	1.79325381e-01
5.60500000e+02	1.78368847e-01
5.61500000e+02	1.77447353e-01
5.62500000e+02	1.76559528e-01
5.63500000e+02	1.75704050e-01
5.64500000e+02	1.74879645e-01
5.65500000e+02	1.74085087e-01
5.66500000e+02	1.73319197e-01
5.67500000e+02	1.72580839e-01
5.68500000e+02	1.71868923e-01
5.69500000e+02	1.71182401e-01
5.70500000e+02	1.70520265e-01
5.71500000e+02	1.69881549e-01
5.72500000e+02	1.69265323e-01
5.73500000e+02	1.68670697e-01
5.74500000e+02	1.68096816e-01
5.75500000e+02	1.67542858e-01
5.76500000e+02	1.67008037e-01
5.77500000e+02	1.66491596e-01
5.78500000e+02	1.65992813e-01
5.79500000e+02	1.65510992e-01
5.80500000e+02	1.65045466e-01
5.81500000e+02	1.64595597e-01
5.82500000e+02	1.64160773e-01
5.83500000e+02	1.63740405e-01
5.84500000e+02	1.63333930e-01
5.85500000e+02	1.62940808e-01
5.86500000e+02	1.62560521e-01
5.87500000e+02	1.62192573e-01
5.88500000e+02	1.61836487e-01
5.89500000e+02	1.61491806e-01
5.90500000e+02	1.61158093e-01
5.91500000e+02	1.60834928e-01
5.92500000e+02	1.60521907e-01
5.93500000e+02	1.60218646e-01
5.94500000e+02	1.59924774e-01
5.95500000e+02	1.59639935e-01
5.96500000e+02	1.59363790e-01
5.97500000e+02	1.59096013e-01
5.98500000e+02	1.58836290e-01
5.99500000e+02	1.58584323e-01
6.00500000e+02	1.58339822e-01
6.01500000e+02	1.58102514e-01
6.02500000e+02	1.57872134e-01
6.03500000e+02	1.57648429e-01
6.04500000e+02	1.57431158e-01
6.05500000e+02	1.57220088e-01
6.06500000e+02	1.57014995e-01
6.07500000e+02	1.56815666e-01
6.08500000e+02	1.56621899e-01
6.09500000e+02	1.56433500e-01
6.10500000e+02	1.56250282e-01
6.11500000e+02	1.56072066e-01
6.12500000e+02	1.55898681e-01
6.13500000e+02	1.55729965e-01
6.14500000e+02	1.55565762e-01
6.15500000e+02	1.55405923e-01
6.16500000e+02	1.55250305e-01
6.17500000e+02	1.55098773e-01
6.18500000e+02	1.54951197e-01
6.19500000e+02	1.54807455e-01
6.20500000e+02	1.54667427e-01
6.21500000e+02	1.54531001e-01
6.22500000e+02	1.54398071e-01
6.23500000e+02	1.54268533e-01
6.24500000e+02	1.54142292e-01
6.25500000e+02	1.54019253e-01
6.26500000e+02	1.53899329e-01
6.27500000e+02	1.53782436e-01
6.28500000e+02	1.53668493e-01
6.29500000e+02	1.53557424e-01
6.30500000e+02	1.53449156e-01
6.31500000e+02	1.53343620e-01
6.32500000e+02	1.53240749e-01
6.33500000e+02	1.53140481e-01
6.34500000e+02	1.53042755e-01
6.35500000e+02	1.52947514e-01
6.36500000e+02	1.52854703e-01
6.37500000e+02	1.52764268e-01
6.38500000e+02	1.52676161e-01
6.39500000e+02	1.52590333e-01
6.40500000e+02	1.52506737e-01
6.41500000e+02	1.52425328e-01
6.42500000e+02	1.52346065e-01
6.43500000e+02	1.52268906e-01
6.44500000e+02	1.52193810e-01
6.45500000e+02	1.52120740e-01
6.46500000e+02	1.52049659e-01
6.47500000e+02	1.51980529e-01
6.48500000e+02	1.51913317e-01
6.49500000e+02	1.51847988e-01
6.50500000e+02	1.51784508e-01
6.51500000e+02	1.51722846e-01
6.52500000e+02	1.51662969e-01
6.53500000e+02	1.51604847e-01
6.54500000e+02	1.51548450e-01
6.55500000e+02	1.51493747e-01
6.56500000e+02	1.51440710e-01
6.57500000e+02	1.51389309e-01
6.58500000e+02	1.51339517e-01
6.59500000e+02	1.51291306e-01
6.60500000e+02	1.51244648e-01
