# Profil de Te au temps 1.100000000000014e-11 
# simu : /Volumes/MERCURE/JOBS/Zeq1_tanh_50mic_5e20_B0_20ps/GNU/Te@y-c.set
# col 0 : abscisse (um)
# col 1 : Te (keV)
5.00000000e-01	9.99459293e-01
1.50000000e+00	9.99458913e-01
2.50000000e+00	9.99458168e-01
3.50000000e+00	9.99457047e-01
4.50000000e+00	9.99455549e-01
5.50000000e+00	9.99453676e-01
6.50000000e+00	9.99451427e-01
7.50000000e+00	9.99448803e-01
8.50000000e+00	9.99445802e-01
9.50000000e+00	9.99442423e-01
1.05000000e+01	9.99438667e-01
1.15000000e+01	9.99434531e-01
1.25000000e+01	9.99430015e-01
1.35000000e+01	9.99425118e-01
1.45000000e+01	9.99419838e-01
1.55000000e+01	9.99414174e-01
1.65000000e+01	9.99408125e-01
1.75000000e+01	9.99401689e-01
1.85000000e+01	9.99394865e-01
1.95000000e+01	9.99387651e-01
2.05000000e+01	9.99380044e-01
2.15000000e+01	9.99372044e-01
2.25000000e+01	9.99363649e-01
2.35000000e+01	9.99354856e-01
2.45000000e+01	9.99345663e-01
2.55000000e+01	9.99336068e-01
2.65000000e+01	9.99326068e-01
2.75000000e+01	9.99315663e-01
2.85000000e+01	9.99304848e-01
2.95000000e+01	9.99293621e-01
3.05000000e+01	9.99281981e-01
3.15000000e+01	9.99269924e-01
3.25000000e+01	9.99257447e-01
3.35000000e+01	9.99244548e-01
3.45000000e+01	9.99231224e-01
3.55000000e+01	9.99217472e-01
3.65000000e+01	9.99203289e-01
3.75000000e+01	9.99188672e-01
3.85000000e+01	9.99173617e-01
3.95000000e+01	9.99158122e-01
4.05000000e+01	9.99142184e-01
4.15000000e+01	9.99125798e-01
4.25000000e+01	9.99108962e-01
4.35000000e+01	9.99091672e-01
4.45000000e+01	9.99073925e-01
4.55000000e+01	9.99055716e-01
4.65000000e+01	9.99037044e-01
4.75000000e+01	9.99017904e-01
4.85000000e+01	9.98998291e-01
4.95000000e+01	9.98978204e-01
5.05000000e+01	9.98957637e-01
5.15000000e+01	9.98936587e-01
5.25000000e+01	9.98915050e-01
5.35000000e+01	9.98893023e-01
5.45000000e+01	9.98870501e-01
5.55000000e+01	9.98847480e-01
5.65000000e+01	9.98823956e-01
5.75000000e+01	9.98799926e-01
5.85000000e+01	9.98775386e-01
5.95000000e+01	9.98750330e-01
6.05000000e+01	9.98724756e-01
6.15000000e+01	9.98698659e-01
6.25000000e+01	9.98672034e-01
6.35000000e+01	9.98644878e-01
6.45000000e+01	9.98617187e-01
6.55000000e+01	9.98588956e-01
6.65000000e+01	9.98560181e-01
6.75000000e+01	9.98530858e-01
6.85000000e+01	9.98500982e-01
6.95000000e+01	9.98470549e-01
7.05000000e+01	9.98439556e-01
7.15000000e+01	9.98407997e-01
7.25000000e+01	9.98375868e-01
7.35000000e+01	9.98343166e-01
7.45000000e+01	9.98309885e-01
7.55000000e+01	9.98276022e-01
7.65000000e+01	9.98241571e-01
7.75000000e+01	9.98206530e-01
7.85000000e+01	9.98170893e-01
7.95000000e+01	9.98134656e-01
8.05000000e+01	9.98097815e-01
8.15000000e+01	9.98060365e-01
8.25000000e+01	9.98022302e-01
8.35000000e+01	9.97983622e-01
8.45000000e+01	9.97944321e-01
8.55000000e+01	9.97904393e-01
8.65000000e+01	9.97863836e-01
8.75000000e+01	9.97822644e-01
8.85000000e+01	9.97780813e-01
8.95000000e+01	9.97738339e-01
9.05000000e+01	9.97695217e-01
9.15000000e+01	9.97651444e-01
9.25000000e+01	9.97607014e-01
9.35000000e+01	9.97561924e-01
9.45000000e+01	9.97516170e-01
9.55000000e+01	9.97469746e-01
9.65000000e+01	9.97422649e-01
9.75000000e+01	9.97374875e-01
9.85000000e+01	9.97326419e-01
9.95000000e+01	9.97277277e-01
1.00500000e+02	9.97227444e-01
1.01500000e+02	9.97176917e-01
1.02500000e+02	9.97125690e-01
1.03500000e+02	9.97073761e-01
1.04500000e+02	9.97021123e-01
1.05500000e+02	9.96967774e-01
1.06500000e+02	9.96913709e-01
1.07500000e+02	9.96858923e-01
1.08500000e+02	9.96803412e-01
1.09500000e+02	9.96747171e-01
1.10500000e+02	9.96690198e-01
1.11500000e+02	9.96632486e-01
1.12500000e+02	9.96574031e-01
1.13500000e+02	9.96514830e-01
1.14500000e+02	9.96454877e-01
1.15500000e+02	9.96394169e-01
1.16500000e+02	9.96332700e-01
1.17500000e+02	9.96270466e-01
1.18500000e+02	9.96207463e-01
1.19500000e+02	9.96143686e-01
1.20500000e+02	9.96079130e-01
1.21500000e+02	9.96013790e-01
1.22500000e+02	9.95947662e-01
1.23500000e+02	9.95880741e-01
1.24500000e+02	9.95813022e-01
1.25500000e+02	9.95744500e-01
1.26500000e+02	9.95675170e-01
1.27500000e+02	9.95605026e-01
1.28500000e+02	9.95534065e-01
1.29500000e+02	9.95462281e-01
1.30500000e+02	9.95389668e-01
1.31500000e+02	9.95316220e-01
1.32500000e+02	9.95241933e-01
1.33500000e+02	9.95166801e-01
1.34500000e+02	9.95090819e-01
1.35500000e+02	9.95013980e-01
1.36500000e+02	9.94936278e-01
1.37500000e+02	9.94857708e-01
1.38500000e+02	9.94778263e-01
1.39500000e+02	9.94697938e-01
1.40500000e+02	9.94616726e-01
1.41500000e+02	9.94534620e-01
1.42500000e+02	9.94451613e-01
1.43500000e+02	9.94367700e-01
1.44500000e+02	9.94282873e-01
1.45500000e+02	9.94197124e-01
1.46500000e+02	9.94110448e-01
1.47500000e+02	9.94022835e-01
1.48500000e+02	9.93934280e-01
1.49500000e+02	9.93844773e-01
1.50500000e+02	9.93754307e-01
1.51500000e+02	9.93662874e-01
1.52500000e+02	9.93570465e-01
1.53500000e+02	9.93477073e-01
1.54500000e+02	9.93382687e-01
1.55500000e+02	9.93287300e-01
1.56500000e+02	9.93190901e-01
1.57500000e+02	9.93093482e-01
1.58500000e+02	9.92995033e-01
1.59500000e+02	9.92895544e-01
1.60500000e+02	9.92795005e-01
1.61500000e+02	9.92693405e-01
1.62500000e+02	9.92590734e-01
1.63500000e+02	9.92486980e-01
1.64500000e+02	9.92382133e-01
1.65500000e+02	9.92276181e-01
1.66500000e+02	9.92169112e-01
1.67500000e+02	9.92060914e-01
1.68500000e+02	9.91951575e-01
1.69500000e+02	9.91841082e-01
1.70500000e+02	9.91729422e-01
1.71500000e+02	9.91616582e-01
1.72500000e+02	9.91502547e-01
1.73500000e+02	9.91387305e-01
1.74500000e+02	9.91270840e-01
1.75500000e+02	9.91153138e-01
1.76500000e+02	9.91034184e-01
1.77500000e+02	9.90913962e-01
1.78500000e+02	9.90792457e-01
1.79500000e+02	9.90669652e-01
1.80500000e+02	9.90545531e-01
1.81500000e+02	9.90420077e-01
1.82500000e+02	9.90293272e-01
1.83500000e+02	9.90165099e-01
1.84500000e+02	9.90035540e-01
1.85500000e+02	9.89904575e-01
1.86500000e+02	9.89772187e-01
1.87500000e+02	9.89638355e-01
1.88500000e+02	9.89503059e-01
1.89500000e+02	9.89366280e-01
1.90500000e+02	9.89227996e-01
1.91500000e+02	9.89088185e-01
1.92500000e+02	9.88946828e-01
1.93500000e+02	9.88803900e-01
1.94500000e+02	9.88659380e-01
1.95500000e+02	9.88513244e-01
1.96500000e+02	9.88365468e-01
1.97500000e+02	9.88216029e-01
1.98500000e+02	9.88064901e-01
1.99500000e+02	9.87912060e-01
2.00500000e+02	9.87757479e-01
2.01500000e+02	9.87601133e-01
2.02500000e+02	9.87442994e-01
2.03500000e+02	9.87283035e-01
2.04500000e+02	9.87121228e-01
2.05500000e+02	9.86957545e-01
2.06500000e+02	9.86791956e-01
2.07500000e+02	9.86624433e-01
2.08500000e+02	9.86454944e-01
2.09500000e+02	9.86283459e-01
2.10500000e+02	9.86109946e-01
2.11500000e+02	9.85934374e-01
2.12500000e+02	9.85756710e-01
2.13500000e+02	9.85576920e-01
2.14500000e+02	9.85394971e-01
2.15500000e+02	9.85210828e-01
2.16500000e+02	9.85024456e-01
2.17500000e+02	9.84835820e-01
2.18500000e+02	9.84644882e-01
2.19500000e+02	9.84451605e-01
2.20500000e+02	9.84255953e-01
2.21500000e+02	9.84057885e-01
2.22500000e+02	9.83857364e-01
2.23500000e+02	9.83654348e-01
2.24500000e+02	9.83448798e-01
2.25500000e+02	9.83240672e-01
2.26500000e+02	9.83029928e-01
2.27500000e+02	9.82816524e-01
2.28500000e+02	9.82600415e-01
2.29500000e+02	9.82381557e-01
2.30500000e+02	9.82159906e-01
2.31500000e+02	9.81935415e-01
2.32500000e+02	9.81708038e-01
2.33500000e+02	9.81477727e-01
2.34500000e+02	9.81244435e-01
2.35500000e+02	9.81008111e-01
2.36500000e+02	9.80768706e-01
2.37500000e+02	9.80526170e-01
2.38500000e+02	9.80280451e-01
2.39500000e+02	9.80031496e-01
2.40500000e+02	9.79779251e-01
2.41500000e+02	9.79523664e-01
2.42500000e+02	9.79264678e-01
2.43500000e+02	9.79002238e-01
2.44500000e+02	9.78736286e-01
2.45500000e+02	9.78466766e-01
2.46500000e+02	9.78193617e-01
2.47500000e+02	9.77916780e-01
2.48500000e+02	9.77636194e-01
2.49500000e+02	9.77351798e-01
2.50500000e+02	9.77063529e-01
2.51500000e+02	9.76771323e-01
2.52500000e+02	9.76475115e-01
2.53500000e+02	9.76174839e-01
2.54500000e+02	9.75870429e-01
2.55500000e+02	9.75561815e-01
2.56500000e+02	9.75248930e-01
2.57500000e+02	9.74931702e-01
2.58500000e+02	9.74610061e-01
2.59500000e+02	9.74283934e-01
2.60500000e+02	9.73953247e-01
2.61500000e+02	9.73617926e-01
2.62500000e+02	9.73277893e-01
2.63500000e+02	9.72933073e-01
2.64500000e+02	9.72583386e-01
2.65500000e+02	9.72228753e-01
2.66500000e+02	9.71869092e-01
2.67500000e+02	9.71504321e-01
2.68500000e+02	9.71134357e-01
2.69500000e+02	9.70759114e-01
2.70500000e+02	9.70378507e-01
2.71500000e+02	9.69992447e-01
2.72500000e+02	9.69600845e-01
2.73500000e+02	9.69203611e-01
2.74500000e+02	9.68800652e-01
2.75500000e+02	9.68391876e-01
2.76500000e+02	9.67977187e-01
2.77500000e+02	9.67556489e-01
2.78500000e+02	9.67129684e-01
2.79500000e+02	9.66696672e-01
2.80500000e+02	9.66257352e-01
2.81500000e+02	9.65811623e-01
2.82500000e+02	9.65359379e-01
2.83500000e+02	9.64900514e-01
2.84500000e+02	9.64434921e-01
2.85500000e+02	9.63962491e-01
2.86500000e+02	9.63483112e-01
2.87500000e+02	9.62996673e-01
2.88500000e+02	9.62503057e-01
2.89500000e+02	9.62002151e-01
2.90500000e+02	9.61493834e-01
2.91500000e+02	9.60977987e-01
2.92500000e+02	9.60454489e-01
2.93500000e+02	9.59923216e-01
2.94500000e+02	9.59384042e-01
2.95500000e+02	9.58836840e-01
2.96500000e+02	9.58281480e-01
2.97500000e+02	9.57717832e-01
2.98500000e+02	9.57145761e-01
2.99500000e+02	9.56565132e-01
3.00500000e+02	9.55975807e-01
3.01500000e+02	9.55377648e-01
3.02500000e+02	9.54770512e-01
3.03500000e+02	9.54154256e-01
3.04500000e+02	9.53528734e-01
3.05500000e+02	9.52893797e-01
3.06500000e+02	9.52249295e-01
3.07500000e+02	9.51595075e-01
3.08500000e+02	9.50930983e-01
3.09500000e+02	9.50256862e-01
3.10500000e+02	9.49572552e-01
3.11500000e+02	9.48877892e-01
3.12500000e+02	9.48172717e-01
3.13500000e+02	9.47456861e-01
3.14500000e+02	9.46730155e-01
3.15500000e+02	9.45992428e-01
3.16500000e+02	9.45243507e-01
3.17500000e+02	9.44483215e-01
3.18500000e+02	9.43711373e-01
3.19500000e+02	9.42927801e-01
3.20500000e+02	9.42132315e-01
3.21500000e+02	9.41324728e-01
3.22500000e+02	9.40504853e-01
3.23500000e+02	9.39672498e-01
3.24500000e+02	9.38827469e-01
3.25500000e+02	9.37969570e-01
3.26500000e+02	9.37098601e-01
3.27500000e+02	9.36214362e-01
3.28500000e+02	9.35316647e-01
3.29500000e+02	9.34405250e-01
3.30500000e+02	9.33479962e-01
3.31500000e+02	9.32540569e-01
3.32500000e+02	9.31586858e-01
3.33500000e+02	9.30618609e-01
3.34500000e+02	9.29635604e-01
3.35500000e+02	9.28637618e-01
3.36500000e+02	9.27624427e-01
3.37500000e+02	9.26595801e-01
3.38500000e+02	9.25551510e-01
3.39500000e+02	9.24491319e-01
3.40500000e+02	9.23414992e-01
3.41500000e+02	9.22322289e-01
3.42500000e+02	9.21212968e-01
3.43500000e+02	9.20086785e-01
3.44500000e+02	9.18943492e-01
3.45500000e+02	9.17782839e-01
3.46500000e+02	9.16604573e-01
3.47500000e+02	9.15408438e-01
3.48500000e+02	9.14194176e-01
3.49500000e+02	9.12961526e-01
3.50500000e+02	9.11710225e-01
3.51500000e+02	9.10440007e-01
3.52500000e+02	9.09150603e-01
3.53500000e+02	9.07841742e-01
3.54500000e+02	9.06513149e-01
3.55500000e+02	9.05164550e-01
3.56500000e+02	9.03795664e-01
3.57500000e+02	9.02406212e-01
3.58500000e+02	9.00995908e-01
3.59500000e+02	8.99564468e-01
3.60500000e+02	8.98111602e-01
3.61500000e+02	8.96637021e-01
3.62500000e+02	8.95140432e-01
3.63500000e+02	8.93621539e-01
3.64500000e+02	8.92080045e-01
3.65500000e+02	8.90515652e-01
3.66500000e+02	8.88928058e-01
3.67500000e+02	8.87316960e-01
3.68500000e+02	8.85682052e-01
3.69500000e+02	8.84023028e-01
3.70500000e+02	8.82339580e-01
3.71500000e+02	8.80631396e-01
3.72500000e+02	8.78898164e-01
3.73500000e+02	8.77139572e-01
3.74500000e+02	8.75355305e-01
3.75500000e+02	8.73545045e-01
3.76500000e+02	8.71708476e-01
3.77500000e+02	8.69845278e-01
3.78500000e+02	8.67955132e-01
3.79500000e+02	8.66037717e-01
3.80500000e+02	8.64092711e-01
3.81500000e+02	8.62119792e-01
3.82500000e+02	8.60118636e-01
3.83500000e+02	8.58088921e-01
3.84500000e+02	8.56030321e-01
3.85500000e+02	8.53942513e-01
3.86500000e+02	8.51825172e-01
3.87500000e+02	8.49677974e-01
3.88500000e+02	8.47500594e-01
3.89500000e+02	8.45292707e-01
3.90500000e+02	8.43053991e-01
3.91500000e+02	8.40784122e-01
3.92500000e+02	8.38482776e-01
3.93500000e+02	8.36149634e-01
3.94500000e+02	8.33784373e-01
3.95500000e+02	8.31386674e-01
3.96500000e+02	8.28956219e-01
3.97500000e+02	8.26492692e-01
3.98500000e+02	8.23995777e-01
3.99500000e+02	8.21465161e-01
4.00500000e+02	8.18900534e-01
4.01500000e+02	8.16301586e-01
4.02500000e+02	8.13668011e-01
4.03500000e+02	8.10999506e-01
4.04500000e+02	8.08295769e-01
4.05500000e+02	8.05556503e-01
4.06500000e+02	8.02781414e-01
4.07500000e+02	7.99970210e-01
4.08500000e+02	7.97122605e-01
4.09500000e+02	7.94238315e-01
4.10500000e+02	7.91317062e-01
4.11500000e+02	7.88358571e-01
4.12500000e+02	7.85362571e-01
4.13500000e+02	7.82328799e-01
4.14500000e+02	7.79256995e-01
4.15500000e+02	7.76146904e-01
4.16500000e+02	7.72998279e-01
4.17500000e+02	7.69810877e-01
4.18500000e+02	7.66584462e-01
4.19500000e+02	7.63318805e-01
4.20500000e+02	7.60013684e-01
4.21500000e+02	7.56668884e-01
4.22500000e+02	7.53284197e-01
4.23500000e+02	7.49859424e-01
4.24500000e+02	7.46394374e-01
4.25500000e+02	7.42888864e-01
4.26500000e+02	7.39342720e-01
4.27500000e+02	7.35755779e-01
4.28500000e+02	7.32127886e-01
4.29500000e+02	7.28458896e-01
4.30500000e+02	7.24748677e-01
4.31500000e+02	7.20997105e-01
4.32500000e+02	7.17204070e-01
4.33500000e+02	7.13369471e-01
4.34500000e+02	7.09493223e-01
4.35500000e+02	7.05575252e-01
4.36500000e+02	7.01615496e-01
4.37500000e+02	6.97613909e-01
4.38500000e+02	6.93570460e-01
4.39500000e+02	6.89485132e-01
4.40500000e+02	6.85357923e-01
4.41500000e+02	6.81188849e-01
4.42500000e+02	6.76977942e-01
4.43500000e+02	6.72725253e-01
4.44500000e+02	6.68430849e-01
4.45500000e+02	6.64094820e-01
4.46500000e+02	6.59717271e-01
4.47500000e+02	6.55298334e-01
4.48500000e+02	6.50838156e-01
4.49500000e+02	6.46336913e-01
4.50500000e+02	6.41794800e-01
4.51500000e+02	6.37212038e-01
4.52500000e+02	6.32588875e-01
4.53500000e+02	6.27925584e-01
4.54500000e+02	6.23222466e-01
4.55500000e+02	6.18479851e-01
4.56500000e+02	6.13698100e-01
4.57500000e+02	6.08877605e-01
4.58500000e+02	6.04018791e-01
4.59500000e+02	5.99122117e-01
4.60500000e+02	5.94188077e-01
4.61500000e+02	5.89217204e-01
4.62500000e+02	5.84210069e-01
4.63500000e+02	5.79167282e-01
4.64500000e+02	5.74089497e-01
4.65500000e+02	5.68977411e-01
4.66500000e+02	5.63831765e-01
4.67500000e+02	5.58653351e-01
4.68500000e+02	5.53443007e-01
4.69500000e+02	5.48201623e-01
4.70500000e+02	5.42930142e-01
4.71500000e+02	5.37629565e-01
4.72500000e+02	5.32300946e-01
4.73500000e+02	5.26945400e-01
4.74500000e+02	5.21564105e-01
4.75500000e+02	5.16158300e-01
4.76500000e+02	5.10729290e-01
4.77500000e+02	5.05278449e-01
4.78500000e+02	4.99807219e-01
4.79500000e+02	4.94317113e-01
4.80500000e+02	4.88809720e-01
4.81500000e+02	4.83286702e-01
4.82500000e+02	4.77749798e-01
4.83500000e+02	4.72200826e-01
4.84500000e+02	4.66641683e-01
4.85500000e+02	4.61074347e-01
4.86500000e+02	4.55500879e-01
4.87500000e+02	4.49923420e-01
4.88500000e+02	4.44344196e-01
4.89500000e+02	4.38765515e-01
4.90500000e+02	4.33189768e-01
4.91500000e+02	4.27619425e-01
4.92500000e+02	4.22057040e-01
4.93500000e+02	4.16505243e-01
4.94500000e+02	4.10966741e-01
4.95500000e+02	4.05444314e-01
4.96500000e+02	3.99940812e-01
4.97500000e+02	3.94459150e-01
4.98500000e+02	3.89002304e-01
4.99500000e+02	3.83573305e-01
5.00500000e+02	3.78175230e-01
5.01500000e+02	3.72811200e-01
5.02500000e+02	3.67484367e-01
5.03500000e+02	3.62197907e-01
5.04500000e+02	3.56955013e-01
5.05500000e+02	3.51758879e-01
5.06500000e+02	3.46612694e-01
5.07500000e+02	3.41519628e-01
5.08500000e+02	3.36482821e-01
5.09500000e+02	3.31505366e-01
5.10500000e+02	3.26590303e-01
5.11500000e+02	3.21740600e-01
5.12500000e+02	3.16959140e-01
5.13500000e+02	3.12248709e-01
5.14500000e+02	3.07611981e-01
5.15500000e+02	3.03051506e-01
5.16500000e+02	2.98569696e-01
5.17500000e+02	2.94168813e-01
5.18500000e+02	2.89850956e-01
5.19500000e+02	2.85618055e-01
5.20500000e+02	2.81471857e-01
5.21500000e+02	2.77413918e-01
5.22500000e+02	2.73445598e-01
5.23500000e+02	2.69568056e-01
5.24500000e+02	2.65782243e-01
5.25500000e+02	2.62088903e-01
5.26500000e+02	2.58488569e-01
5.27500000e+02	2.54981567e-01
5.28500000e+02	2.51568014e-01
5.29500000e+02	2.48247828e-01
5.30500000e+02	2.45020727e-01
5.31500000e+02	2.41886242e-01
5.32500000e+02	2.38843719e-01
5.33500000e+02	2.35892331e-01
5.34500000e+02	2.33031090e-01
5.35500000e+02	2.30258853e-01
5.36500000e+02	2.27574338e-01
5.37500000e+02	2.24976132e-01
5.38500000e+02	2.22462708e-01
5.39500000e+02	2.20032433e-01
5.40500000e+02	2.17683582e-01
5.41500000e+02	2.15414350e-01
5.42500000e+02	2.13222867e-01
5.43500000e+02	2.11107205e-01
5.44500000e+02	2.09065392e-01
5.45500000e+02	2.07095421e-01
5.46500000e+02	2.05195264e-01
5.47500000e+02	2.03362876e-01
5.48500000e+02	2.01596209e-01
5.49500000e+02	1.99893215e-01
5.50500000e+02	1.98251859e-01
5.51500000e+02	1.96670120e-01
5.52500000e+02	1.95146001e-01
5.53500000e+02	1.93677534e-01
5.54500000e+02	1.92262782e-01
5.55500000e+02	1.90899844e-01
5.56500000e+02	1.89586862e-01
5.57500000e+02	1.88322018e-01
5.58500000e+02	1.87103541e-01
5.59500000e+02	1.85929706e-01
5.60500000e+02	1.84798836e-01
5.61500000e+02	1.83709305e-01
5.62500000e+02	1.82659536e-01
5.63500000e+02	1.81648003e-01
5.64500000e+02	1.80673231e-01
5.65500000e+02	1.79733794e-01
5.66500000e+02	1.78828317e-01
5.67500000e+02	1.77955473e-01
5.68500000e+02	1.77113985e-01
5.69500000e+02	1.76302622e-01
5.70500000e+02	1.75520202e-01
5.71500000e+02	1.74765586e-01
5.72500000e+02	1.74037681e-01
5.73500000e+02	1.73335436e-01
5.74500000e+02	1.72657841e-01
5.75500000e+02	1.72003928e-01
5.76500000e+02	1.71372769e-01
5.77500000e+02	1.70763470e-01
5.78500000e+02	1.70175178e-01
5.79500000e+02	1.69607072e-01
5.80500000e+02	1.69058365e-01
5.81500000e+02	1.68528304e-01
5.82500000e+02	1.68016167e-01
5.83500000e+02	1.67521261e-01
5.84500000e+02	1.67042921e-01
5.85500000e+02	1.66580513e-01
5.86500000e+02	1.66133426e-01
5.87500000e+02	1.65701077e-01
5.88500000e+02	1.65282905e-01
5.89500000e+02	1.64878373e-01
5.90500000e+02	1.64486969e-01
5.91500000e+02	1.64108197e-01
5.92500000e+02	1.63741587e-01
5.93500000e+02	1.63386685e-01
5.94500000e+02	1.63043056e-01
5.95500000e+02	1.62710285e-01
5.96500000e+02	1.62387972e-01
5.97500000e+02	1.62075734e-01
5.98500000e+02	1.61773205e-01
5.99500000e+02	1.61480031e-01
6.00500000e+02	1.61195875e-01
6.01500000e+02	1.60920412e-01
6.02500000e+02	1.60653333e-01
6.03500000e+02	1.60394337e-01
6.04500000e+02	1.60143139e-01
6.05500000e+02	1.59899463e-01
6.06500000e+02	1.59663046e-01
6.07500000e+02	1.59433634e-01
6.08500000e+02	1.59210983e-01
6.09500000e+02	1.58994860e-01
6.10500000e+02	1.58785041e-01
6.11500000e+02	1.58581309e-01
6.12500000e+02	1.58383458e-01
6.13500000e+02	1.58191288e-01
6.14500000e+02	1.58004608e-01
6.15500000e+02	1.57823234e-01
6.16500000e+02	1.57646990e-01
6.17500000e+02	1.57475706e-01
6.18500000e+02	1.57309219e-01
6.19500000e+02	1.57147372e-01
6.20500000e+02	1.56990014e-01
6.21500000e+02	1.56837000e-01
6.22500000e+02	1.56688191e-01
6.23500000e+02	1.56543453e-01
6.24500000e+02	1.56402657e-01
6.25500000e+02	1.56265679e-01
6.26500000e+02	1.56132400e-01
6.27500000e+02	1.56002705e-01
6.28500000e+02	1.55876485e-01
6.29500000e+02	1.55753634e-01
6.30500000e+02	1.55634050e-01
6.31500000e+02	1.55517635e-01
6.32500000e+02	1.55404295e-01
6.33500000e+02	1.55293940e-01
6.34500000e+02	1.55186483e-01
6.35500000e+02	1.55081841e-01
6.36500000e+02	1.54979933e-01
6.37500000e+02	1.54880682e-01
6.38500000e+02	1.54784015e-01
6.39500000e+02	1.54689860e-01
6.40500000e+02	1.54598150e-01
6.41500000e+02	1.54508820e-01
6.42500000e+02	1.54421807e-01
6.43500000e+02	1.54337051e-01
6.44500000e+02	1.54254495e-01
6.45500000e+02	1.54174083e-01
6.46500000e+02	1.54095763e-01
6.47500000e+02	1.54019484e-01
6.48500000e+02	1.53945198e-01
6.49500000e+02	1.53872860e-01
6.50500000e+02	1.53802424e-01
6.51500000e+02	1.53733849e-01
6.52500000e+02	1.53667095e-01
6.53500000e+02	1.53602124e-01
6.54500000e+02	1.53538900e-01
6.55500000e+02	1.53477387e-01
6.56500000e+02	1.53417553e-01
6.57500000e+02	1.53359367e-01
6.58500000e+02	1.53302800e-01
6.59500000e+02	1.53247822e-01
6.60500000e+02	1.53194409e-01
