# Profil de Te au temps 1.600999999999999e-11 
# simu : /Volumes/MERCURE/JOBS/Zeq1_tanh_50mic_5e20_B0_20ps/GNU/Te@y-c.set
# col 0 : abscisse (um)
# col 1 : Te (keV)
5.00000000e-01	9.94287652e-01
1.50000000e+00	9.94287118e-01
2.50000000e+00	9.94286084e-01
3.50000000e+00	9.94284532e-01
4.50000000e+00	9.94282453e-01
5.50000000e+00	9.94279854e-01
6.50000000e+00	9.94276736e-01
7.50000000e+00	9.94273097e-01
8.50000000e+00	9.94268937e-01
9.50000000e+00	9.94264255e-01
1.05000000e+01	9.94259052e-01
1.15000000e+01	9.94253327e-01
1.25000000e+01	9.94247078e-01
1.35000000e+01	9.94240306e-01
1.45000000e+01	9.94233009e-01
1.55000000e+01	9.94225186e-01
1.65000000e+01	9.94216837e-01
1.75000000e+01	9.94207961e-01
1.85000000e+01	9.94198556e-01
1.95000000e+01	9.94188621e-01
2.05000000e+01	9.94178156e-01
2.15000000e+01	9.94167159e-01
2.25000000e+01	9.94155629e-01
2.35000000e+01	9.94143564e-01
2.45000000e+01	9.94130963e-01
2.55000000e+01	9.94117825e-01
2.65000000e+01	9.94104148e-01
2.75000000e+01	9.94089930e-01
2.85000000e+01	9.94075170e-01
2.95000000e+01	9.94059866e-01
3.05000000e+01	9.94044016e-01
3.15000000e+01	9.94027619e-01
3.25000000e+01	9.94010672e-01
3.35000000e+01	9.93993174e-01
3.45000000e+01	9.93975122e-01
3.55000000e+01	9.93956515e-01
3.65000000e+01	9.93937349e-01
3.75000000e+01	9.93917624e-01
3.85000000e+01	9.93897336e-01
3.95000000e+01	9.93876484e-01
4.05000000e+01	9.93855064e-01
4.15000000e+01	9.93833075e-01
4.25000000e+01	9.93810514e-01
4.35000000e+01	9.93787378e-01
4.45000000e+01	9.93763664e-01
4.55000000e+01	9.93739370e-01
4.65000000e+01	9.93714493e-01
4.75000000e+01	9.93689030e-01
4.85000000e+01	9.93662978e-01
4.95000000e+01	9.93636334e-01
5.05000000e+01	9.93609095e-01
5.15000000e+01	9.93581258e-01
5.25000000e+01	9.93552819e-01
5.35000000e+01	9.93523776e-01
5.45000000e+01	9.93494124e-01
5.55000000e+01	9.93463860e-01
5.65000000e+01	9.93432982e-01
5.75000000e+01	9.93401485e-01
5.85000000e+01	9.93369365e-01
5.95000000e+01	9.93336620e-01
6.05000000e+01	9.93303244e-01
6.15000000e+01	9.93269235e-01
6.25000000e+01	9.93234588e-01
6.35000000e+01	9.93199299e-01
6.45000000e+01	9.93163365e-01
6.55000000e+01	9.93126781e-01
6.65000000e+01	9.93089542e-01
6.75000000e+01	9.93051645e-01
6.85000000e+01	9.93013085e-01
6.95000000e+01	9.92973857e-01
7.05000000e+01	9.92933958e-01
7.15000000e+01	9.92893382e-01
7.25000000e+01	9.92852125e-01
7.35000000e+01	9.92810182e-01
7.45000000e+01	9.92767548e-01
7.55000000e+01	9.92724218e-01
7.65000000e+01	9.92680187e-01
7.75000000e+01	9.92635451e-01
7.85000000e+01	9.92590003e-01
7.95000000e+01	9.92543840e-01
8.05000000e+01	9.92496954e-01
8.15000000e+01	9.92449342e-01
8.25000000e+01	9.92400997e-01
8.35000000e+01	9.92351914e-01
8.45000000e+01	9.92302087e-01
8.55000000e+01	9.92251511e-01
8.65000000e+01	9.92200179e-01
8.75000000e+01	9.92148086e-01
8.85000000e+01	9.92095225e-01
8.95000000e+01	9.92041591e-01
9.05000000e+01	9.91987178e-01
9.15000000e+01	9.91931978e-01
9.25000000e+01	9.91875987e-01
9.35000000e+01	9.91819196e-01
9.45000000e+01	9.91761601e-01
9.55000000e+01	9.91703193e-01
9.65000000e+01	9.91643967e-01
9.75000000e+01	9.91583915e-01
9.85000000e+01	9.91523031e-01
9.95000000e+01	9.91461307e-01
1.00500000e+02	9.91398736e-01
1.01500000e+02	9.91335312e-01
1.02500000e+02	9.91271026e-01
1.03500000e+02	9.91205872e-01
1.04500000e+02	9.91139841e-01
1.05500000e+02	9.91072927e-01
1.06500000e+02	9.91005121e-01
1.07500000e+02	9.90936416e-01
1.08500000e+02	9.90866803e-01
1.09500000e+02	9.90796274e-01
1.10500000e+02	9.90724822e-01
1.11500000e+02	9.90652438e-01
1.12500000e+02	9.90579114e-01
1.13500000e+02	9.90504840e-01
1.14500000e+02	9.90429609e-01
1.15500000e+02	9.90353412e-01
1.16500000e+02	9.90276239e-01
1.17500000e+02	9.90198082e-01
1.18500000e+02	9.90118932e-01
1.19500000e+02	9.90038778e-01
1.20500000e+02	9.89957613e-01
1.21500000e+02	9.89875427e-01
1.22500000e+02	9.89792209e-01
1.23500000e+02	9.89707950e-01
1.24500000e+02	9.89622641e-01
1.25500000e+02	9.89536270e-01
1.26500000e+02	9.89448829e-01
1.27500000e+02	9.89360306e-01
1.28500000e+02	9.89270691e-01
1.29500000e+02	9.89179974e-01
1.30500000e+02	9.89088143e-01
1.31500000e+02	9.88995189e-01
1.32500000e+02	9.88901099e-01
1.33500000e+02	9.88805864e-01
1.34500000e+02	9.88709470e-01
1.35500000e+02	9.88611908e-01
1.36500000e+02	9.88513164e-01
1.37500000e+02	9.88413228e-01
1.38500000e+02	9.88312088e-01
1.39500000e+02	9.88209730e-01
1.40500000e+02	9.88106144e-01
1.41500000e+02	9.88001316e-01
1.42500000e+02	9.87895234e-01
1.43500000e+02	9.87787885e-01
1.44500000e+02	9.87679256e-01
1.45500000e+02	9.87569334e-01
1.46500000e+02	9.87458106e-01
1.47500000e+02	9.87345557e-01
1.48500000e+02	9.87231674e-01
1.49500000e+02	9.87116444e-01
1.50500000e+02	9.86999851e-01
1.51500000e+02	9.86881883e-01
1.52500000e+02	9.86762523e-01
1.53500000e+02	9.86641759e-01
1.54500000e+02	9.86519573e-01
1.55500000e+02	9.86395953e-01
1.56500000e+02	9.86270881e-01
1.57500000e+02	9.86144343e-01
1.58500000e+02	9.86016323e-01
1.59500000e+02	9.85886804e-01
1.60500000e+02	9.85755771e-01
1.61500000e+02	9.85623207e-01
1.62500000e+02	9.85489095e-01
1.63500000e+02	9.85353419e-01
1.64500000e+02	9.85216161e-01
1.65500000e+02	9.85077304e-01
1.66500000e+02	9.84936831e-01
1.67500000e+02	9.84794722e-01
1.68500000e+02	9.84650961e-01
1.69500000e+02	9.84505528e-01
1.70500000e+02	9.84358406e-01
1.71500000e+02	9.84209574e-01
1.72500000e+02	9.84059015e-01
1.73500000e+02	9.83906708e-01
1.74500000e+02	9.83752634e-01
1.75500000e+02	9.83596772e-01
1.76500000e+02	9.83439103e-01
1.77500000e+02	9.83279605e-01
1.78500000e+02	9.83118259e-01
1.79500000e+02	9.82955042e-01
1.80500000e+02	9.82789933e-01
1.81500000e+02	9.82622911e-01
1.82500000e+02	9.82453952e-01
1.83500000e+02	9.82283036e-01
1.84500000e+02	9.82110138e-01
1.85500000e+02	9.81935237e-01
1.86500000e+02	9.81758308e-01
1.87500000e+02	9.81579328e-01
1.88500000e+02	9.81398273e-01
1.89500000e+02	9.81215118e-01
1.90500000e+02	9.81029838e-01
1.91500000e+02	9.80842409e-01
1.92500000e+02	9.80652806e-01
1.93500000e+02	9.80461001e-01
1.94500000e+02	9.80266969e-01
1.95500000e+02	9.80070684e-01
1.96500000e+02	9.79872118e-01
1.97500000e+02	9.79671244e-01
1.98500000e+02	9.79468034e-01
1.99500000e+02	9.79262460e-01
2.00500000e+02	9.79054495e-01
2.01500000e+02	9.78844108e-01
2.02500000e+02	9.78631270e-01
2.03500000e+02	9.78415952e-01
2.04500000e+02	9.78198123e-01
2.05500000e+02	9.77977754e-01
2.06500000e+02	9.77754812e-01
2.07500000e+02	9.77529266e-01
2.08500000e+02	9.77301085e-01
2.09500000e+02	9.77070235e-01
2.10500000e+02	9.76836685e-01
2.11500000e+02	9.76600400e-01
2.12500000e+02	9.76361348e-01
2.13500000e+02	9.76119493e-01
2.14500000e+02	9.75874802e-01
2.15500000e+02	9.75627238e-01
2.16500000e+02	9.75376766e-01
2.17500000e+02	9.75123350e-01
2.18500000e+02	9.74866952e-01
2.19500000e+02	9.74607537e-01
2.20500000e+02	9.74345066e-01
2.21500000e+02	9.74079500e-01
2.22500000e+02	9.73810801e-01
2.23500000e+02	9.73538929e-01
2.24500000e+02	9.73263844e-01
2.25500000e+02	9.72985507e-01
2.26500000e+02	9.72703875e-01
2.27500000e+02	9.72418907e-01
2.28500000e+02	9.72130561e-01
2.29500000e+02	9.71838793e-01
2.30500000e+02	9.71543562e-01
2.31500000e+02	9.71244821e-01
2.32500000e+02	9.70942528e-01
2.33500000e+02	9.70636635e-01
2.34500000e+02	9.70327099e-01
2.35500000e+02	9.70013871e-01
2.36500000e+02	9.69696905e-01
2.37500000e+02	9.69376153e-01
2.38500000e+02	9.69051567e-01
2.39500000e+02	9.68723096e-01
2.40500000e+02	9.68390692e-01
2.41500000e+02	9.68054304e-01
2.42500000e+02	9.67713880e-01
2.43500000e+02	9.67369369e-01
2.44500000e+02	9.67020717e-01
2.45500000e+02	9.66667872e-01
2.46500000e+02	9.66310780e-01
2.47500000e+02	9.65949384e-01
2.48500000e+02	9.65583631e-01
2.49500000e+02	9.65213463e-01
2.50500000e+02	9.64838823e-01
2.51500000e+02	9.64459654e-01
2.52500000e+02	9.64075896e-01
2.53500000e+02	9.63687491e-01
2.54500000e+02	9.63294377e-01
2.55500000e+02	9.62896495e-01
2.56500000e+02	9.62493781e-01
2.57500000e+02	9.62086173e-01
2.58500000e+02	9.61673608e-01
2.59500000e+02	9.61256020e-01
2.60500000e+02	9.60833345e-01
2.61500000e+02	9.60405517e-01
2.62500000e+02	9.59972468e-01
2.63500000e+02	9.59534131e-01
2.64500000e+02	9.59090436e-01
2.65500000e+02	9.58641314e-01
2.66500000e+02	9.58186693e-01
2.67500000e+02	9.57726504e-01
2.68500000e+02	9.57260672e-01
2.69500000e+02	9.56789124e-01
2.70500000e+02	9.56311787e-01
2.71500000e+02	9.55828583e-01
2.72500000e+02	9.55339438e-01
2.73500000e+02	9.54844274e-01
2.74500000e+02	9.54343011e-01
2.75500000e+02	9.53835572e-01
2.76500000e+02	9.53321874e-01
2.77500000e+02	9.52801838e-01
2.78500000e+02	9.52275380e-01
2.79500000e+02	9.51742417e-01
2.80500000e+02	9.51202864e-01
2.81500000e+02	9.50656636e-01
2.82500000e+02	9.50103645e-01
2.83500000e+02	9.49543804e-01
2.84500000e+02	9.48977024e-01
2.85500000e+02	9.48403215e-01
2.86500000e+02	9.47822286e-01
2.87500000e+02	9.47234144e-01
2.88500000e+02	9.46638696e-01
2.89500000e+02	9.46035848e-01
2.90500000e+02	9.45425503e-01
2.91500000e+02	9.44807565e-01
2.92500000e+02	9.44181936e-01
2.93500000e+02	9.43548516e-01
2.94500000e+02	9.42907205e-01
2.95500000e+02	9.42257901e-01
2.96500000e+02	9.41600503e-01
2.97500000e+02	9.40934904e-01
2.98500000e+02	9.40261001e-01
2.99500000e+02	9.39578686e-01
3.00500000e+02	9.38887852e-01
3.01500000e+02	9.38188390e-01
3.02500000e+02	9.37480190e-01
3.03500000e+02	9.36763139e-01
3.04500000e+02	9.36037126e-01
3.05500000e+02	9.35302035e-01
3.06500000e+02	9.34557752e-01
3.07500000e+02	9.33804160e-01
3.08500000e+02	9.33041140e-01
3.09500000e+02	9.32268574e-01
3.10500000e+02	9.31486340e-01
3.11500000e+02	9.30694318e-01
3.12500000e+02	9.29892383e-01
3.13500000e+02	9.29080411e-01
3.14500000e+02	9.28258276e-01
3.15500000e+02	9.27425850e-01
3.16500000e+02	9.26583006e-01
3.17500000e+02	9.25729612e-01
3.18500000e+02	9.24865538e-01
3.19500000e+02	9.23990651e-01
3.20500000e+02	9.23104817e-01
3.21500000e+02	9.22207900e-01
3.22500000e+02	9.21299764e-01
3.23500000e+02	9.20380270e-01
3.24500000e+02	9.19449279e-01
3.25500000e+02	9.18506649e-01
3.26500000e+02	9.17552240e-01
3.27500000e+02	9.16585906e-01
3.28500000e+02	9.15607503e-01
3.29500000e+02	9.14616884e-01
3.30500000e+02	9.13613902e-01
3.31500000e+02	9.12598408e-01
3.32500000e+02	9.11570250e-01
3.33500000e+02	9.10529277e-01
3.34500000e+02	9.09475336e-01
3.35500000e+02	9.08408272e-01
3.36500000e+02	9.07327929e-01
3.37500000e+02	9.06234149e-01
3.38500000e+02	9.05126775e-01
3.39500000e+02	9.04005645e-01
3.40500000e+02	9.02870599e-01
3.41500000e+02	9.01721473e-01
3.42500000e+02	9.00558104e-01
3.43500000e+02	8.99380327e-01
3.44500000e+02	8.98187974e-01
3.45500000e+02	8.96980877e-01
3.46500000e+02	8.95758869e-01
3.47500000e+02	8.94521777e-01
3.48500000e+02	8.93269430e-01
3.49500000e+02	8.92001655e-01
3.50500000e+02	8.90718278e-01
3.51500000e+02	8.89419124e-01
3.52500000e+02	8.88104015e-01
3.53500000e+02	8.86772773e-01
3.54500000e+02	8.85425220e-01
3.55500000e+02	8.84061175e-01
3.56500000e+02	8.82680457e-01
3.57500000e+02	8.81282884e-01
3.58500000e+02	8.79868270e-01
3.59500000e+02	8.78436433e-01
3.60500000e+02	8.76987186e-01
3.61500000e+02	8.75520342e-01
3.62500000e+02	8.74035713e-01
3.63500000e+02	8.72533110e-01
3.64500000e+02	8.71012344e-01
3.65500000e+02	8.69473224e-01
3.66500000e+02	8.67915557e-01
3.67500000e+02	8.66339152e-01
3.68500000e+02	8.64743814e-01
3.69500000e+02	8.63129350e-01
3.70500000e+02	8.61495564e-01
3.71500000e+02	8.59842259e-01
3.72500000e+02	8.58169241e-01
3.73500000e+02	8.56476310e-01
3.74500000e+02	8.54763269e-01
3.75500000e+02	8.53029919e-01
3.76500000e+02	8.51276061e-01
3.77500000e+02	8.49501495e-01
3.78500000e+02	8.47706019e-01
3.79500000e+02	8.45889434e-01
3.80500000e+02	8.44051537e-01
3.81500000e+02	8.42192127e-01
3.82500000e+02	8.40311001e-01
3.83500000e+02	8.38407957e-01
3.84500000e+02	8.36482792e-01
3.85500000e+02	8.34535302e-01
3.86500000e+02	8.32565285e-01
3.87500000e+02	8.30572537e-01
3.88500000e+02	8.28556853e-01
3.89500000e+02	8.26518031e-01
3.90500000e+02	8.24455866e-01
3.91500000e+02	8.22370156e-01
3.92500000e+02	8.20260696e-01
3.93500000e+02	8.18127283e-01
3.94500000e+02	8.15969713e-01
3.95500000e+02	8.13787785e-01
3.96500000e+02	8.11581295e-01
3.97500000e+02	8.09350042e-01
3.98500000e+02	8.07093822e-01
3.99500000e+02	8.04812436e-01
4.00500000e+02	8.02505683e-01
4.01500000e+02	8.00173362e-01
4.02500000e+02	7.97815274e-01
4.03500000e+02	7.95431221e-01
4.04500000e+02	7.93021005e-01
4.05500000e+02	7.90584430e-01
4.06500000e+02	7.88121299e-01
4.07500000e+02	7.85631419e-01
4.08500000e+02	7.83114595e-01
4.09500000e+02	7.80570636e-01
4.10500000e+02	7.77999351e-01
4.11500000e+02	7.75400550e-01
4.12500000e+02	7.72774045e-01
4.13500000e+02	7.70119650e-01
4.14500000e+02	7.67437181e-01
4.15500000e+02	7.64726455e-01
4.16500000e+02	7.61987290e-01
4.17500000e+02	7.59219509e-01
4.18500000e+02	7.56422933e-01
4.19500000e+02	7.53597390e-01
4.20500000e+02	7.50742705e-01
4.21500000e+02	7.47858711e-01
4.22500000e+02	7.44945239e-01
4.23500000e+02	7.42002125e-01
4.24500000e+02	7.39029207e-01
4.25500000e+02	7.36026328e-01
4.26500000e+02	7.32993331e-01
4.27500000e+02	7.29930065e-01
4.28500000e+02	7.26836380e-01
4.29500000e+02	7.23712132e-01
4.30500000e+02	7.20557179e-01
4.31500000e+02	7.17371384e-01
4.32500000e+02	7.14154614e-01
4.33500000e+02	7.10906739e-01
4.34500000e+02	7.07627636e-01
4.35500000e+02	7.04317185e-01
4.36500000e+02	7.00975272e-01
4.37500000e+02	6.97601786e-01
4.38500000e+02	6.94196624e-01
4.39500000e+02	6.90759688e-01
4.40500000e+02	6.87290886e-01
4.41500000e+02	6.83790130e-01
4.42500000e+02	6.80257343e-01
4.43500000e+02	6.76692451e-01
4.44500000e+02	6.73095389e-01
4.45500000e+02	6.69466098e-01
4.46500000e+02	6.65804529e-01
4.47500000e+02	6.62110641e-01
4.48500000e+02	6.58384399e-01
4.49500000e+02	6.54625779e-01
4.50500000e+02	6.50834768e-01
4.51500000e+02	6.47011360e-01
4.52500000e+02	6.43155561e-01
4.53500000e+02	6.39267387e-01
4.54500000e+02	6.35346868e-01
4.55500000e+02	6.31394042e-01
4.56500000e+02	6.27408963e-01
4.57500000e+02	6.23391697e-01
4.58500000e+02	6.19342323e-01
4.59500000e+02	6.15260937e-01
4.60500000e+02	6.11147647e-01
4.61500000e+02	6.07002579e-01
4.62500000e+02	6.02825876e-01
4.63500000e+02	5.98617699e-01
4.64500000e+02	5.94378224e-01
4.65500000e+02	5.90107652e-01
4.66500000e+02	5.85806199e-01
4.67500000e+02	5.81474106e-01
4.68500000e+02	5.77111635e-01
4.69500000e+02	5.72719071e-01
4.70500000e+02	5.68296724e-01
4.71500000e+02	5.63844931e-01
4.72500000e+02	5.59364053e-01
4.73500000e+02	5.54854484e-01
4.74500000e+02	5.50316642e-01
4.75500000e+02	5.45750980e-01
4.76500000e+02	5.41157984e-01
4.77500000e+02	5.36538169e-01
4.78500000e+02	5.31892092e-01
4.79500000e+02	5.27220342e-01
4.80500000e+02	5.22523549e-01
4.81500000e+02	5.17802383e-01
4.82500000e+02	5.13057557e-01
4.83500000e+02	5.08289827e-01
4.84500000e+02	5.03499994e-01
4.85500000e+02	4.98688908e-01
4.86500000e+02	4.93857469e-01
4.87500000e+02	4.89006626e-01
4.88500000e+02	4.84137384e-01
4.89500000e+02	4.79250801e-01
4.90500000e+02	4.74347994e-01
4.91500000e+02	4.69430137e-01
4.92500000e+02	4.64498465e-01
4.93500000e+02	4.59554278e-01
4.94500000e+02	4.54598938e-01
4.95500000e+02	4.49633874e-01
4.96500000e+02	4.44660581e-01
4.97500000e+02	4.39680624e-01
4.98500000e+02	4.34695638e-01
4.99500000e+02	4.29707330e-01
5.00500000e+02	4.24717476e-01
5.01500000e+02	4.19727929e-01
5.02500000e+02	4.14740609e-01
5.03500000e+02	4.09757515e-01
5.04500000e+02	4.04780714e-01
5.05500000e+02	3.99812346e-01
5.06500000e+02	3.94854621e-01
5.07500000e+02	3.89909819e-01
5.08500000e+02	3.84980284e-01
5.09500000e+02	3.80068427e-01
5.10500000e+02	3.75176716e-01
5.11500000e+02	3.70307677e-01
5.12500000e+02	3.65463889e-01
5.13500000e+02	3.60647975e-01
5.14500000e+02	3.55862600e-01
5.15500000e+02	3.51110463e-01
5.16500000e+02	3.46394287e-01
5.17500000e+02	3.41716817e-01
5.18500000e+02	3.37080804e-01
5.19500000e+02	3.32489000e-01
5.20500000e+02	3.27944147e-01
5.21500000e+02	3.23448965e-01
5.22500000e+02	3.19006143e-01
5.23500000e+02	3.14618327e-01
5.24500000e+02	3.10288104e-01
5.25500000e+02	3.06017996e-01
5.26500000e+02	3.01810444e-01
5.27500000e+02	2.97667797e-01
5.28500000e+02	2.93592298e-01
5.29500000e+02	2.89586076e-01
5.30500000e+02	2.85651132e-01
5.31500000e+02	2.81789329e-01
5.32500000e+02	2.78002381e-01
5.33500000e+02	2.74291849e-01
5.34500000e+02	2.70659126e-01
5.35500000e+02	2.67105436e-01
5.36500000e+02	2.63631825e-01
5.37500000e+02	2.60239160e-01
5.38500000e+02	2.56928125e-01
5.39500000e+02	2.53699217e-01
5.40500000e+02	2.50552752e-01
5.41500000e+02	2.47488861e-01
5.42500000e+02	2.44507497e-01
5.43500000e+02	2.41608439e-01
5.44500000e+02	2.38791293e-01
5.45500000e+02	2.36055506e-01
5.46500000e+02	2.33400368e-01
5.47500000e+02	2.30825024e-01
5.48500000e+02	2.28328482e-01
5.49500000e+02	2.25909623e-01
5.50500000e+02	2.23567214e-01
5.51500000e+02	2.21299914e-01
5.52500000e+02	2.19106290e-01
5.53500000e+02	2.16984824e-01
5.54500000e+02	2.14933930e-01
5.55500000e+02	2.12951956e-01
5.56500000e+02	2.11037203e-01
5.57500000e+02	2.09187929e-01
5.58500000e+02	2.07402363e-01
5.59500000e+02	2.05678710e-01
5.60500000e+02	2.04015164e-01
5.61500000e+02	2.02409913e-01
5.62500000e+02	2.00861146e-01
5.63500000e+02	1.99367062e-01
5.64500000e+02	1.97925874e-01
5.65500000e+02	1.96535815e-01
5.66500000e+02	1.95195144e-01
5.67500000e+02	1.93902148e-01
5.68500000e+02	1.92655146e-01
5.69500000e+02	1.91452495e-01
5.70500000e+02	1.90292589e-01
5.71500000e+02	1.89173862e-01
5.72500000e+02	1.88094791e-01
5.73500000e+02	1.87053897e-01
5.74500000e+02	1.86049743e-01
5.75500000e+02	1.85080939e-01
5.76500000e+02	1.84146139e-01
5.77500000e+02	1.83244043e-01
5.78500000e+02	1.82373396e-01
5.79500000e+02	1.81532987e-01
5.80500000e+02	1.80721649e-01
5.81500000e+02	1.79938259e-01
5.82500000e+02	1.79181736e-01
5.83500000e+02	1.78451041e-01
5.84500000e+02	1.77745174e-01
5.85500000e+02	1.77063177e-01
5.86500000e+02	1.76404128e-01
5.87500000e+02	1.75767144e-01
5.88500000e+02	1.75151376e-01
5.89500000e+02	1.74556012e-01
5.90500000e+02	1.73980271e-01
5.91500000e+02	1.73423406e-01
5.92500000e+02	1.72884701e-01
5.93500000e+02	1.72363469e-01
5.94500000e+02	1.71859053e-01
5.95500000e+02	1.71370823e-01
5.96500000e+02	1.70898175e-01
5.97500000e+02	1.70440530e-01
5.98500000e+02	1.69997335e-01
5.99500000e+02	1.69568059e-01
6.00500000e+02	1.69152194e-01
6.01500000e+02	1.68749252e-01
6.02500000e+02	1.68358768e-01
6.03500000e+02	1.67980294e-01
6.04500000e+02	1.67613402e-01
6.05500000e+02	1.67257681e-01
6.06500000e+02	1.66912738e-01
6.07500000e+02	1.66578195e-01
6.08500000e+02	1.66253692e-01
6.09500000e+02	1.65938881e-01
6.10500000e+02	1.65633430e-01
6.11500000e+02	1.65337021e-01
6.12500000e+02	1.65049347e-01
6.13500000e+02	1.64770115e-01
6.14500000e+02	1.64499043e-01
6.15500000e+02	1.64235863e-01
6.16500000e+02	1.63980313e-01
6.17500000e+02	1.63732146e-01
6.18500000e+02	1.63491122e-01
6.19500000e+02	1.63257013e-01
6.20500000e+02	1.63029596e-01
6.21500000e+02	1.62808662e-01
6.22500000e+02	1.62594007e-01
6.23500000e+02	1.62385434e-01
6.24500000e+02	1.62182758e-01
6.25500000e+02	1.61985796e-01
6.26500000e+02	1.61794375e-01
6.27500000e+02	1.61608329e-01
6.28500000e+02	1.61427498e-01
6.29500000e+02	1.61251726e-01
6.30500000e+02	1.61080866e-01
6.31500000e+02	1.60914775e-01
6.32500000e+02	1.60753316e-01
6.33500000e+02	1.60596357e-01
6.34500000e+02	1.60443770e-01
6.35500000e+02	1.60295433e-01
6.36500000e+02	1.60151229e-01
6.37500000e+02	1.60011044e-01
6.38500000e+02	1.59874769e-01
6.39500000e+02	1.59742299e-01
6.40500000e+02	1.59613533e-01
6.41500000e+02	1.59488373e-01
6.42500000e+02	1.59366727e-01
6.43500000e+02	1.59248504e-01
6.44500000e+02	1.59133616e-01
6.45500000e+02	1.59021980e-01
6.46500000e+02	1.58913516e-01
6.47500000e+02	1.58808147e-01
6.48500000e+02	1.58705796e-01
6.49500000e+02	1.58606393e-01
6.50500000e+02	1.58509868e-01
6.51500000e+02	1.58416154e-01
6.52500000e+02	1.58325188e-01
6.53500000e+02	1.58236908e-01
6.54500000e+02	1.58151253e-01
6.55500000e+02	1.58068167e-01
6.56500000e+02	1.57987596e-01
6.57500000e+02	1.57909485e-01
6.58500000e+02	1.57833784e-01
6.59500000e+02	1.57760444e-01
6.60500000e+02	1.57689418e-01
