# Profil de ElecX au temps 1.700999999999984e-11 
# simu : /Volumes/MERCURE/JOBS/Zeq2_tanh_50mic_2p1e19_B0_20ps/GNU/ElecX@y-c.set
# col 0 : abscisse (um)
# col 1 : ElecX (V/m)
0.00000000e+00	0.00000000e+00
1.00000000e+00	6.43306711e+03
2.00000000e+00	8.36985150e+03
3.00000000e+00	1.21497016e+04
4.00000000e+00	1.76373365e+04
5.00000000e+00	2.19269129e+04
6.00000000e+00	2.62810534e+04
7.00000000e+00	3.06679244e+04
8.00000000e+00	3.50394050e+04
9.00000000e+00	3.94215633e+04
1.00000000e+01	4.38003068e+04
1.10000000e+01	4.81780720e+04
1.20000000e+01	5.25559781e+04
1.30000000e+01	5.69317942e+04
1.40000000e+01	6.13085226e+04
1.50000000e+01	6.56840764e+04
1.60000000e+01	7.00596472e+04
1.70000000e+01	7.44347893e+04
1.80000000e+01	7.88057859e+04
1.90000000e+01	8.31821588e+04
2.00000000e+01	8.75509273e+04
2.10000000e+01	9.19255780e+04
2.20000000e+01	9.62926391e+04
2.30000000e+01	1.00665155e+05
2.40000000e+01	1.05032155e+05
2.50000000e+01	1.09400036e+05
2.60000000e+01	1.13768252e+05
2.70000000e+01	1.18132223e+05
2.80000000e+01	1.22497329e+05
2.90000000e+01	1.26861745e+05
3.00000000e+01	1.31223828e+05
3.10000000e+01	1.35584553e+05
3.20000000e+01	1.39945057e+05
3.30000000e+01	1.44304843e+05
3.40000000e+01	1.48661133e+05
3.50000000e+01	1.53017849e+05
3.60000000e+01	1.57373147e+05
3.70000000e+01	1.61727455e+05
3.80000000e+01	1.66078521e+05
3.90000000e+01	1.70429814e+05
4.00000000e+01	1.74779430e+05
4.10000000e+01	1.79127951e+05
4.20000000e+01	1.83474003e+05
4.30000000e+01	1.87818697e+05
4.40000000e+01	1.92162545e+05
4.50000000e+01	1.96504519e+05
4.60000000e+01	2.00845414e+05
4.70000000e+01	2.05183616e+05
4.80000000e+01	2.09520745e+05
4.90000000e+01	2.13856497e+05
5.00000000e+01	2.18190483e+05
5.10000000e+01	2.22522884e+05
5.20000000e+01	2.26853876e+05
5.30000000e+01	2.31181944e+05
5.40000000e+01	2.35509574e+05
5.50000000e+01	2.39835113e+05
5.60000000e+01	2.44159048e+05
5.70000000e+01	2.48481043e+05
5.80000000e+01	2.52801451e+05
5.90000000e+01	2.57120408e+05
6.00000000e+01	2.61436620e+05
6.10000000e+01	2.65752101e+05
6.20000000e+01	2.70065404e+05
6.30000000e+01	2.74377025e+05
6.40000000e+01	2.78686843e+05
6.50000000e+01	2.82994975e+05
6.60000000e+01	2.87301256e+05
6.70000000e+01	2.91605912e+05
6.80000000e+01	2.95908747e+05
6.90000000e+01	3.00209682e+05
7.00000000e+01	3.04508887e+05
7.10000000e+01	3.08806567e+05
7.20000000e+01	3.13102356e+05
7.30000000e+01	3.17396507e+05
7.40000000e+01	3.21688898e+05
7.50000000e+01	3.25979526e+05
7.60000000e+01	3.30268543e+05
7.70000000e+01	3.34555829e+05
7.80000000e+01	3.38841499e+05
7.90000000e+01	3.43125483e+05
8.00000000e+01	3.47407836e+05
8.10000000e+01	3.51688620e+05
8.20000000e+01	3.55967756e+05
8.30000000e+01	3.60245297e+05
8.40000000e+01	3.64521341e+05
8.50000000e+01	3.68795817e+05
8.60000000e+01	3.73068808e+05
8.70000000e+01	3.77340307e+05
8.80000000e+01	3.81610363e+05
8.90000000e+01	3.85878967e+05
9.00000000e+01	3.90146183e+05
9.10000000e+01	3.94412037e+05
9.20000000e+01	3.98676540e+05
9.30000000e+01	4.02939667e+05
9.40000000e+01	4.07201598e+05
9.50000000e+01	4.11462270e+05
9.60000000e+01	4.15721742e+05
9.70000000e+01	4.19980033e+05
9.80000000e+01	4.24237216e+05
9.90000000e+01	4.28493265e+05
1.00000000e+02	4.32748299e+05
1.01000000e+02	4.37002309e+05
1.02000000e+02	4.41255342e+05
1.03000000e+02	4.45507446e+05
1.04000000e+02	4.49758814e+05
1.05000000e+02	4.54009166e+05
1.06000000e+02	4.58258669e+05
1.07000000e+02	4.62507515e+05
1.08000000e+02	4.66755598e+05
1.09000000e+02	4.71003012e+05
1.10000000e+02	4.75249886e+05
1.11000000e+02	4.79496177e+05
1.12000000e+02	4.83742135e+05
1.13000000e+02	4.87985841e+05
1.14000000e+02	4.92231816e+05
1.15000000e+02	4.96476971e+05
1.16000000e+02	5.00721632e+05
1.17000000e+02	5.04965245e+05
1.18000000e+02	5.09209504e+05
1.19000000e+02	5.13453230e+05
1.20000000e+02	5.17697021e+05
1.21000000e+02	5.21940864e+05
1.22000000e+02	5.26184671e+05
1.23000000e+02	5.30428639e+05
1.24000000e+02	5.34672754e+05
1.25000000e+02	5.38917164e+05
1.26000000e+02	5.43162054e+05
1.27000000e+02	5.47406910e+05
1.28000000e+02	5.51652704e+05
1.29000000e+02	5.55898508e+05
1.30000000e+02	5.60145240e+05
1.31000000e+02	5.64392729e+05
1.32000000e+02	5.68640315e+05
1.33000000e+02	5.72889295e+05
1.34000000e+02	5.77139035e+05
1.35000000e+02	5.81389262e+05
1.36000000e+02	5.85640884e+05
1.37000000e+02	5.89893493e+05
1.38000000e+02	5.94147232e+05
1.39000000e+02	5.98401966e+05
1.40000000e+02	6.02658170e+05
1.41000000e+02	6.06915728e+05
1.42000000e+02	6.11174710e+05
1.43000000e+02	6.15434977e+05
1.44000000e+02	6.19697019e+05
1.45000000e+02	6.23960609e+05
1.46000000e+02	6.28225951e+05
1.47000000e+02	6.32493108e+05
1.48000000e+02	6.36762026e+05
1.49000000e+02	6.41032871e+05
1.50000000e+02	6.45305858e+05
1.51000000e+02	6.49580895e+05
1.52000000e+02	6.53858103e+05
1.53000000e+02	6.58137582e+05
1.54000000e+02	6.62419339e+05
1.55000000e+02	6.66703559e+05
1.56000000e+02	6.70990147e+05
1.57000000e+02	6.75279397e+05
1.58000000e+02	6.79571268e+05
1.59000000e+02	6.83865851e+05
1.60000000e+02	6.88163232e+05
1.61000000e+02	6.92463523e+05
1.62000000e+02	6.96766672e+05
1.63000000e+02	7.01072920e+05
1.64000000e+02	7.05382286e+05
1.65000000e+02	7.09694852e+05
1.66000000e+02	7.14010691e+05
1.67000000e+02	7.18329902e+05
1.68000000e+02	7.22652568e+05
1.69000000e+02	7.26978677e+05
1.70000000e+02	7.31308455e+05
1.71000000e+02	7.35641923e+05
1.72000000e+02	7.39979120e+05
1.73000000e+02	7.44320194e+05
1.74000000e+02	7.48665172e+05
1.75000000e+02	7.53014134e+05
1.76000000e+02	7.57367244e+05
1.77000000e+02	7.61724508e+05
1.78000000e+02	7.66086029e+05
1.79000000e+02	7.70451922e+05
1.80000000e+02	7.74822176e+05
1.81000000e+02	7.79196969e+05
1.82000000e+02	7.83576411e+05
1.83000000e+02	7.87960447e+05
1.84000000e+02	7.92349315e+05
1.85000000e+02	7.96742937e+05
1.86000000e+02	8.01141604e+05
1.87000000e+02	8.05545228e+05
1.88000000e+02	8.09953920e+05
1.89000000e+02	8.14367917e+05
1.90000000e+02	8.18787031e+05
1.91000000e+02	8.23211655e+05
1.92000000e+02	8.27641691e+05
1.93000000e+02	8.32077176e+05
1.94000000e+02	8.36518422e+05
1.95000000e+02	8.40965340e+05
1.96000000e+02	8.45418022e+05
1.97000000e+02	8.49876651e+05
1.98000000e+02	8.54341258e+05
1.99000000e+02	8.58812002e+05
2.00000000e+02	8.63288831e+05
2.01000000e+02	8.67771961e+05
2.02000000e+02	8.72261500e+05
2.03000000e+02	8.76757583e+05
2.04000000e+02	8.81260209e+05
2.05000000e+02	8.85769396e+05
2.06000000e+02	8.90285281e+05
2.07000000e+02	8.94808098e+05
2.08000000e+02	8.99337946e+05
2.09000000e+02	9.03874889e+05
2.10000000e+02	9.08419040e+05
2.11000000e+02	9.12970285e+05
2.12000000e+02	9.17529011e+05
2.13000000e+02	9.22095369e+05
2.14000000e+02	9.26669366e+05
2.15000000e+02	9.31251129e+05
2.16000000e+02	9.35840775e+05
2.17000000e+02	9.40438428e+05
2.18000000e+02	9.45044224e+05
2.19000000e+02	9.49658288e+05
2.20000000e+02	9.54280713e+05
2.21000000e+02	9.58911717e+05
2.22000000e+02	9.63551383e+05
2.23000000e+02	9.68199866e+05
2.24000000e+02	9.72857319e+05
2.25000000e+02	9.77523888e+05
2.26000000e+02	9.82199720e+05
2.27000000e+02	9.86884998e+05
2.28000000e+02	9.91579872e+05
2.29000000e+02	9.96284506e+05
2.30000000e+02	1.00099908e+06
2.31000000e+02	1.00572378e+06
2.32000000e+02	1.01045880e+06
2.33000000e+02	1.01520430e+06
2.34000000e+02	1.01996050e+06
2.35000000e+02	1.02472762e+06
2.36000000e+02	1.02950582e+06
2.37000000e+02	1.03429536e+06
2.38000000e+02	1.03909644e+06
2.39000000e+02	1.04390931e+06
2.40000000e+02	1.04873420e+06
2.41000000e+02	1.05357135e+06
2.42000000e+02	1.05842102e+06
2.43000000e+02	1.06328349e+06
2.44000000e+02	1.06815900e+06
2.45000000e+02	1.07304782e+06
2.46000000e+02	1.07795031e+06
2.47000000e+02	1.08286668e+06
2.48000000e+02	1.08779730e+06
2.49000000e+02	1.09274248e+06
2.50000000e+02	1.09770254e+06
2.51000000e+02	1.10267783e+06
2.52000000e+02	1.10766870e+06
2.53000000e+02	1.11267551e+06
2.54000000e+02	1.11769867e+06
2.55000000e+02	1.12273853e+06
2.56000000e+02	1.12779552e+06
2.57000000e+02	1.13287005e+06
2.58000000e+02	1.13796254e+06
2.59000000e+02	1.14307345e+06
2.60000000e+02	1.14820322e+06
2.61000000e+02	1.15335234e+06
2.62000000e+02	1.15852130e+06
2.63000000e+02	1.16371060e+06
2.64000000e+02	1.16892076e+06
2.65000000e+02	1.17415233e+06
2.66000000e+02	1.17940585e+06
2.67000000e+02	1.18468190e+06
2.68000000e+02	1.18998107e+06
2.69000000e+02	1.19530396e+06
2.70000000e+02	1.20065120e+06
2.71000000e+02	1.20602344e+06
2.72000000e+02	1.21142133e+06
2.73000000e+02	1.21684557e+06
2.74000000e+02	1.22229686e+06
2.75000000e+02	1.22777591e+06
2.76000000e+02	1.23328349e+06
2.77000000e+02	1.23882036e+06
2.78000000e+02	1.24438729e+06
2.79000000e+02	1.24998511e+06
2.80000000e+02	1.25561465e+06
2.81000000e+02	1.26127677e+06
2.82000000e+02	1.26697233e+06
2.83000000e+02	1.27270226e+06
2.84000000e+02	1.27846746e+06
2.85000000e+02	1.28426890e+06
2.86000000e+02	1.29010755e+06
2.87000000e+02	1.29598440e+06
2.88000000e+02	1.30190049e+06
2.89000000e+02	1.30785687e+06
2.90000000e+02	1.31385460e+06
2.91000000e+02	1.31989479e+06
2.92000000e+02	1.32597857e+06
2.93000000e+02	1.33210709e+06
2.94000000e+02	1.33828153e+06
2.95000000e+02	1.34450311e+06
2.96000000e+02	1.35077304e+06
2.97000000e+02	1.35709260e+06
2.98000000e+02	1.36346307e+06
2.99000000e+02	1.36988576e+06
3.00000000e+02	1.37636203e+06
3.01000000e+02	1.38289323e+06
3.02000000e+02	1.38948076e+06
3.03000000e+02	1.39612605e+06
3.04000000e+02	1.40283056e+06
3.05000000e+02	1.40959574e+06
3.06000000e+02	1.41642312e+06
3.07000000e+02	1.42331422e+06
3.08000000e+02	1.43027060e+06
3.09000000e+02	1.43729385e+06
3.10000000e+02	1.44438557e+06
3.11000000e+02	1.45154741e+06
3.12000000e+02	1.45878102e+06
3.13000000e+02	1.46608810e+06
3.14000000e+02	1.47347035e+06
3.15000000e+02	1.48092952e+06
3.16000000e+02	1.48846736e+06
3.17000000e+02	1.49608566e+06
3.18000000e+02	1.50378623e+06
3.19000000e+02	1.51157089e+06
3.20000000e+02	1.51944150e+06
3.21000000e+02	1.52739993e+06
3.22000000e+02	1.53544807e+06
3.23000000e+02	1.54358783e+06
3.24000000e+02	1.55182114e+06
3.25000000e+02	1.56014994e+06
3.26000000e+02	1.56857621e+06
3.27000000e+02	1.57710191e+06
3.28000000e+02	1.58572905e+06
3.29000000e+02	1.59445962e+06
3.30000000e+02	1.60329566e+06
3.31000000e+02	1.61223918e+06
3.32000000e+02	1.62129224e+06
3.33000000e+02	1.63045689e+06
3.34000000e+02	1.63973518e+06
3.35000000e+02	1.64912918e+06
3.36000000e+02	1.65864096e+06
3.37000000e+02	1.66827260e+06
3.38000000e+02	1.67802618e+06
3.39000000e+02	1.68790378e+06
3.40000000e+02	1.69790746e+06
3.41000000e+02	1.70803932e+06
3.42000000e+02	1.71830142e+06
3.43000000e+02	1.72869584e+06
3.44000000e+02	1.73922464e+06
3.45000000e+02	1.74988988e+06
3.46000000e+02	1.76069360e+06
3.47000000e+02	1.77163784e+06
3.48000000e+02	1.78272462e+06
3.49000000e+02	1.79395597e+06
3.50000000e+02	1.80533388e+06
3.51000000e+02	1.81686032e+06
3.52000000e+02	1.82853727e+06
3.53000000e+02	1.84036668e+06
3.54000000e+02	1.85235045e+06
3.55000000e+02	1.86449051e+06
3.56000000e+02	1.87678873e+06
3.57000000e+02	1.88924695e+06
3.58000000e+02	1.90186702e+06
3.59000000e+02	1.91465074e+06
3.60000000e+02	1.92759987e+06
3.61000000e+02	1.94071615e+06
3.62000000e+02	1.95400131e+06
3.63000000e+02	1.96745701e+06
3.64000000e+02	1.98108490e+06
3.65000000e+02	1.99488658e+06
3.66000000e+02	2.00886363e+06
3.67000000e+02	2.02301758e+06
3.68000000e+02	2.03734993e+06
3.69000000e+02	2.05186212e+06
3.70000000e+02	2.06655556e+06
3.71000000e+02	2.08143162e+06
3.72000000e+02	2.09649163e+06
3.73000000e+02	2.11173686e+06
3.74000000e+02	2.12716853e+06
3.75000000e+02	2.14278783e+06
3.76000000e+02	2.15859588e+06
3.77000000e+02	2.17459377e+06
3.78000000e+02	2.19078250e+06
3.79000000e+02	2.20716305e+06
3.80000000e+02	2.22373633e+06
3.81000000e+02	2.24050320e+06
3.82000000e+02	2.25746443e+06
3.83000000e+02	2.27462075e+06
3.84000000e+02	2.29197284e+06
3.85000000e+02	2.30952128e+06
3.86000000e+02	2.32726661e+06
3.87000000e+02	2.34520927e+06
3.88000000e+02	2.36334966e+06
3.89000000e+02	2.38168808e+06
3.90000000e+02	2.40022475e+06
3.91000000e+02	2.41895983e+06
3.92000000e+02	2.43789338e+06
3.93000000e+02	2.45702539e+06
3.94000000e+02	2.47635573e+06
3.95000000e+02	2.49588421e+06
3.96000000e+02	2.51561053e+06
3.97000000e+02	2.53553430e+06
3.98000000e+02	2.55565502e+06
3.99000000e+02	2.57597209e+06
4.00000000e+02	2.59648482e+06
4.01000000e+02	2.61719238e+06
4.02000000e+02	2.63809384e+06
4.03000000e+02	2.65918817e+06
4.04000000e+02	2.68047420e+06
4.05000000e+02	2.70195065e+06
4.06000000e+02	2.72361611e+06
4.07000000e+02	2.74546904e+06
4.08000000e+02	2.76750776e+06
4.09000000e+02	2.78973048e+06
4.10000000e+02	2.81213526e+06
4.11000000e+02	2.83472001e+06
4.12000000e+02	2.85748252e+06
4.13000000e+02	2.88042040e+06
4.14000000e+02	2.90353116e+06
4.15000000e+02	2.92681213e+06
4.16000000e+02	2.95026048e+06
4.17000000e+02	2.97387325e+06
4.18000000e+02	2.99764731e+06
4.19000000e+02	3.02157938e+06
4.20000000e+02	3.04566602e+06
4.21000000e+02	3.06990364e+06
4.22000000e+02	3.09428846e+06
4.23000000e+02	3.11881658e+06
4.24000000e+02	3.14348392e+06
4.25000000e+02	3.16828623e+06
4.26000000e+02	3.19321912e+06
4.27000000e+02	3.21827804e+06
4.28000000e+02	3.24345826e+06
4.29000000e+02	3.26875493e+06
4.30000000e+02	3.29416302e+06
4.31000000e+02	3.31967736e+06
4.32000000e+02	3.34529263e+06
4.33000000e+02	3.37100336e+06
4.34000000e+02	3.39680396e+06
4.35000000e+02	3.42268868e+06
4.36000000e+02	3.44865166e+06
4.37000000e+02	3.47468689e+06
4.38000000e+02	3.50078827e+06
4.39000000e+02	3.52694955e+06
4.40000000e+02	3.55316441e+06
4.41000000e+02	3.57942641e+06
4.42000000e+02	3.60572901e+06
4.43000000e+02	3.63206561e+06
4.44000000e+02	3.65842951e+06
4.45000000e+02	3.68481396e+06
4.46000000e+02	3.71121213e+06
4.47000000e+02	3.73761718e+06
4.48000000e+02	3.76402219e+06
4.49000000e+02	3.79042024e+06
4.50000000e+02	3.81680437e+06
4.51000000e+02	3.84316764e+06
4.52000000e+02	3.86950310e+06
4.53000000e+02	3.89580380e+06
4.54000000e+02	3.92206283e+06
4.55000000e+02	3.94827333e+06
4.56000000e+02	3.97442846e+06
4.57000000e+02	4.00052147e+06
4.58000000e+02	4.02654564e+06
4.59000000e+02	4.05249436e+06
4.60000000e+02	4.07836111e+06
4.61000000e+02	4.10413945e+06
4.62000000e+02	4.12982307e+06
4.63000000e+02	4.15540575e+06
4.64000000e+02	4.18088143e+06
4.65000000e+02	4.20624416e+06
4.66000000e+02	4.23148814e+06
4.67000000e+02	4.25660772e+06
4.68000000e+02	4.28159737e+06
4.69000000e+02	4.30645177e+06
4.70000000e+02	4.33116570e+06
4.71000000e+02	4.35573416e+06
4.72000000e+02	4.38015225e+06
4.73000000e+02	4.40441529e+06
4.74000000e+02	4.42851871e+06
4.75000000e+02	4.45245812e+06
4.76000000e+02	4.47622930e+06
4.77000000e+02	4.49982814e+06
4.78000000e+02	4.52325070e+06
4.79000000e+02	4.54649316e+06
4.80000000e+02	4.56955183e+06
4.81000000e+02	4.59242311e+06
4.82000000e+02	4.61510353e+06
4.83000000e+02	4.63758970e+06
4.84000000e+02	4.65987828e+06
4.85000000e+02	4.68196600e+06
4.86000000e+02	4.70384964e+06
4.87000000e+02	4.72552598e+06
4.88000000e+02	4.74699180e+06
4.89000000e+02	4.76824388e+06
4.90000000e+02	4.78927895e+06
4.91000000e+02	4.81009366e+06
4.92000000e+02	4.83068460e+06
4.93000000e+02	4.85104824e+06
4.94000000e+02	4.87118091e+06
4.95000000e+02	4.89107881e+06
4.96000000e+02	4.91073792e+06
4.97000000e+02	4.93015407e+06
4.98000000e+02	4.94932281e+06
4.99000000e+02	4.96823947e+06
5.00000000e+02	4.98689911e+06
5.01000000e+02	5.00529648e+06
5.02000000e+02	5.02342601e+06
5.03000000e+02	5.04128182e+06
5.04000000e+02	5.05885763e+06
5.05000000e+02	5.07614683e+06
5.06000000e+02	5.09314240e+06
5.07000000e+02	5.10983690e+06
5.08000000e+02	5.12622249e+06
5.09000000e+02	5.14229090e+06
5.10000000e+02	5.15803341e+06
5.11000000e+02	5.17344085e+06
5.12000000e+02	5.18850362e+06
5.13000000e+02	5.20321162e+06
5.14000000e+02	5.21755434e+06
5.15000000e+02	5.23152078e+06
5.16000000e+02	5.24509952e+06
5.17000000e+02	5.25827867e+06
5.18000000e+02	5.27104593e+06
5.19000000e+02	5.28338856e+06
5.20000000e+02	5.29529344e+06
5.21000000e+02	5.30674705e+06
5.22000000e+02	5.31773549e+06
5.23000000e+02	5.32824456e+06
5.24000000e+02	5.33825970e+06
5.25000000e+02	5.34776612e+06
5.26000000e+02	5.35674872e+06
5.27000000e+02	5.36519222e+06
5.28000000e+02	5.37308117e+06
5.29000000e+02	5.38039996e+06
5.30000000e+02	5.38713288e+06
5.31000000e+02	5.39326420e+06
5.32000000e+02	5.39877817e+06
5.33000000e+02	5.40365908e+06
5.34000000e+02	5.40789133e+06
5.35000000e+02	5.41145946e+06
5.36000000e+02	5.41434822e+06
5.37000000e+02	5.41654262e+06
5.38000000e+02	5.41802798e+06
5.39000000e+02	5.41878999e+06
5.40000000e+02	5.41881479e+06
5.41000000e+02	5.41808899e+06
5.42000000e+02	5.41659974e+06
5.43000000e+02	5.41433480e+06
5.44000000e+02	5.41128259e+06
5.45000000e+02	5.40743221e+06
5.46000000e+02	5.40277355e+06
5.47000000e+02	5.39729731e+06
5.48000000e+02	5.39099504e+06
5.49000000e+02	5.38385920e+06
5.50000000e+02	5.37588323e+06
5.51000000e+02	5.36706153e+06
5.52000000e+02	5.35738953e+06
5.53000000e+02	5.34686376e+06
5.54000000e+02	5.33548178e+06
5.55000000e+02	5.32324232e+06
5.56000000e+02	5.31014520e+06
5.57000000e+02	5.29619140e+06
5.58000000e+02	5.28138307e+06
5.59000000e+02	5.26572350e+06
5.60000000e+02	5.24921717e+06
5.61000000e+02	5.23186969e+06
5.62000000e+02	5.21368784e+06
5.63000000e+02	5.19467952e+06
5.64000000e+02	5.17485374e+06
5.65000000e+02	5.15422057e+06
5.66000000e+02	5.13279116e+06
5.67000000e+02	5.11057763e+06
5.68000000e+02	5.08759311e+06
5.69000000e+02	5.06385162e+06
5.70000000e+02	5.03936807e+06
5.71000000e+02	5.01415819e+06
5.72000000e+02	4.98823848e+06
5.73000000e+02	4.96162614e+06
5.74000000e+02	4.93433903e+06
5.75000000e+02	4.90639557e+06
5.76000000e+02	4.87781471e+06
5.77000000e+02	4.84861586e+06
5.78000000e+02	4.81881877e+06
5.79000000e+02	4.78844355e+06
5.80000000e+02	4.75751053e+06
5.81000000e+02	4.72604021e+06
5.82000000e+02	4.69405321e+06
5.83000000e+02	4.66157018e+06
5.84000000e+02	4.62861176e+06
5.85000000e+02	4.59519849e+06
5.86000000e+02	4.56135079e+06
5.87000000e+02	4.52708886e+06
5.88000000e+02	4.49243265e+06
5.89000000e+02	4.45740182e+06
5.90000000e+02	4.42201567e+06
5.91000000e+02	4.38629307e+06
5.92000000e+02	4.35025250e+06
5.93000000e+02	4.31391192e+06
5.94000000e+02	4.27728880e+06
5.95000000e+02	4.24040005e+06
5.96000000e+02	4.20326204e+06
5.97000000e+02	4.16589055e+06
5.98000000e+02	4.12830073e+06
5.99000000e+02	4.09050713e+06
6.00000000e+02	4.05252367e+06
6.01000000e+02	4.01436358e+06
6.02000000e+02	3.97603949e+06
6.03000000e+02	3.93756332e+06
6.04000000e+02	3.89894636e+06
6.05000000e+02	3.86019926e+06
6.06000000e+02	3.82133202e+06
6.07000000e+02	3.78235401e+06
6.08000000e+02	3.74327401e+06
6.09000000e+02	3.70410017e+06
6.10000000e+02	3.66484003e+06
6.11000000e+02	3.62550059e+06
6.12000000e+02	3.58608827e+06
6.13000000e+02	3.54660894e+06
6.14000000e+02	3.50706799e+06
6.15000000e+02	3.46747029e+06
6.16000000e+02	3.42782025e+06
6.17000000e+02	3.38812183e+06
6.18000000e+02	3.34837859e+06
6.19000000e+02	3.30859370e+06
6.20000000e+02	3.26876993e+06
6.21000000e+02	3.22890973e+06
6.22000000e+02	3.18901519e+06
6.23000000e+02	3.14908810e+06
6.24000000e+02	3.10912993e+06
6.25000000e+02	3.06914195e+06
6.26000000e+02	3.02912519e+06
6.27000000e+02	2.98908049e+06
6.28000000e+02	2.94900849e+06
6.29000000e+02	2.90890968e+06
6.30000000e+02	2.86878435e+06
6.31000000e+02	2.82863269e+06
6.32000000e+02	2.78845477e+06
6.33000000e+02	2.74825058e+06
6.34000000e+02	2.70802003e+06
6.35000000e+02	2.66776292e+06
6.36000000e+02	2.62747903e+06
6.37000000e+02	2.58716812e+06
6.38000000e+02	2.54682990e+06
6.39000000e+02	2.50646412e+06
6.40000000e+02	2.46607051e+06
6.41000000e+02	2.42564884e+06
6.42000000e+02	2.38519885e+06
6.43000000e+02	2.34472032e+06
6.44000000e+02	2.30421307e+06
6.45000000e+02	2.26367693e+06
6.46000000e+02	2.22311168e+06
6.47000000e+02	2.18251704e+06
6.48000000e+02	2.14189299e+06
6.49000000e+02	2.10123973e+06
6.50000000e+02	2.06055744e+06
6.51000000e+02	2.01984591e+06
6.52000000e+02	1.97910485e+06
6.53000000e+02	1.93833471e+06
6.54000000e+02	1.89753658e+06
6.55000000e+02	1.85671094e+06
6.56000000e+02	1.81585719e+06
6.57000000e+02	1.77497505e+06
6.58000000e+02	1.73406566e+06
6.59000000e+02	1.69313047e+06
