# Profil de ElecX au temps 1.900999999999955e-11 
# simu : /Volumes/MERCURE/JOBS/Zeq2_tanh_50mic_2p1e19_B0_20ps/GNU/ElecX@y-c.set
# col 0 : abscisse (um)
# col 1 : ElecX (V/m)
0.00000000e+00	0.00000000e+00
1.00000000e+00	6.66964940e+03
2.00000000e+00	8.31817839e+03
3.00000000e+00	1.20259007e+04
4.00000000e+00	1.76488197e+04
5.00000000e+00	2.19231367e+04
6.00000000e+00	2.62714155e+04
7.00000000e+00	3.06589373e+04
8.00000000e+00	3.50271087e+04
9.00000000e+00	3.94086733e+04
1.00000000e+01	4.37861353e+04
1.10000000e+01	4.81625339e+04
1.20000000e+01	5.25393077e+04
1.30000000e+01	5.69136220e+04
1.40000000e+01	6.12893369e+04
1.50000000e+01	6.56637836e+04
1.60000000e+01	7.00385034e+04
1.70000000e+01	7.44129538e+04
1.80000000e+01	7.87824749e+04
1.90000000e+01	8.31590071e+04
2.00000000e+01	8.75263329e+04
2.10000000e+01	9.19013306e+04
2.20000000e+01	9.62671395e+04
2.30000000e+01	1.00640131e+05
2.40000000e+01	1.05006556e+05
2.50000000e+01	1.09374448e+05
2.60000000e+01	1.13743137e+05
2.70000000e+01	1.18106880e+05
2.80000000e+01	1.22472457e+05
2.90000000e+01	1.26837554e+05
3.00000000e+01	1.31200151e+05
3.10000000e+01	1.35561470e+05
3.20000000e+01	1.39922946e+05
3.30000000e+01	1.44283958e+05
3.40000000e+01	1.48641042e+05
3.50000000e+01	1.52999108e+05
3.60000000e+01	1.57355844e+05
3.70000000e+01	1.61711828e+05
3.80000000e+01	1.66064229e+05
3.90000000e+01	1.70417336e+05
4.00000000e+01	1.74768874e+05
4.10000000e+01	1.79119515e+05
4.20000000e+01	1.83467511e+05
4.30000000e+01	1.87814310e+05
4.40000000e+01	1.92160576e+05
4.50000000e+01	1.96504911e+05
4.60000000e+01	2.00848420e+05
4.70000000e+01	2.05189036e+05
4.80000000e+01	2.09528792e+05
4.90000000e+01	2.13867291e+05
5.00000000e+01	2.18204070e+05
5.10000000e+01	2.22539345e+05
5.20000000e+01	2.26873305e+05
5.30000000e+01	2.31204078e+05
5.40000000e+01	2.35534771e+05
5.50000000e+01	2.39863265e+05
5.60000000e+01	2.44190245e+05
5.70000000e+01	2.48515181e+05
5.80000000e+01	2.52838592e+05
5.90000000e+01	2.57160581e+05
6.00000000e+01	2.61479523e+05
6.10000000e+01	2.65797994e+05
6.20000000e+01	2.70114061e+05
6.30000000e+01	2.74428426e+05
6.40000000e+01	2.78740858e+05
6.50000000e+01	2.83051563e+05
6.60000000e+01	2.87360203e+05
6.70000000e+01	2.91667177e+05
6.80000000e+01	2.95972120e+05
6.90000000e+01	3.00274994e+05
7.00000000e+01	3.04575892e+05
7.10000000e+01	3.08875165e+05
7.20000000e+01	3.13172242e+05
7.30000000e+01	3.17467497e+05
7.40000000e+01	3.21760676e+05
7.50000000e+01	3.26051821e+05
7.60000000e+01	3.30341043e+05
7.70000000e+01	3.34628182e+05
7.80000000e+01	3.38913407e+05
7.90000000e+01	3.43196551e+05
8.00000000e+01	3.47477614e+05
8.10000000e+01	3.51756763e+05
8.20000000e+01	3.56033786e+05
8.30000000e+01	3.60308728e+05
8.40000000e+01	3.64581682e+05
8.50000000e+01	3.68852568e+05
8.60000000e+01	3.73121443e+05
8.70000000e+01	3.77388246e+05
8.80000000e+01	3.81652933e+05
8.90000000e+01	3.85915585e+05
9.00000000e+01	3.90176153e+05
9.10000000e+01	3.94434697e+05
9.20000000e+01	3.98691173e+05
9.30000000e+01	4.02945503e+05
9.40000000e+01	4.07197880e+05
9.50000000e+01	4.11448213e+05
9.60000000e+01	4.15696428e+05
9.70000000e+01	4.19942639e+05
9.80000000e+01	4.24186852e+05
9.90000000e+01	4.28428929e+05
1.00000000e+02	4.32669092e+05
1.01000000e+02	4.36907174e+05
1.02000000e+02	4.41143246e+05
1.03000000e+02	4.45377349e+05
1.04000000e+02	4.49609407e+05
1.05000000e+02	4.53839566e+05
1.06000000e+02	4.58067642e+05
1.07000000e+02	4.62293849e+05
1.08000000e+02	4.66518073e+05
1.09000000e+02	4.70740266e+05
1.10000000e+02	4.74960685e+05
1.11000000e+02	4.79179028e+05
1.12000000e+02	4.83395911e+05
1.13000000e+02	4.87607566e+05
1.14000000e+02	4.91821954e+05
1.15000000e+02	4.96033730e+05
1.16000000e+02	5.00243206e+05
1.17000000e+02	5.04449821e+05
1.18000000e+02	5.08655683e+05
1.19000000e+02	5.12859218e+05
1.20000000e+02	5.17061077e+05
1.21000000e+02	5.21261248e+05
1.22000000e+02	5.25459486e+05
1.23000000e+02	5.29656221e+05
1.24000000e+02	5.33851084e+05
1.25000000e+02	5.38044408e+05
1.26000000e+02	5.42236272e+05
1.27000000e+02	5.46425952e+05
1.28000000e+02	5.50614469e+05
1.29000000e+02	5.54800797e+05
1.30000000e+02	5.58986142e+05
1.31000000e+02	5.63170172e+05
1.32000000e+02	5.67351872e+05
1.33000000e+02	5.71532904e+05
1.34000000e+02	5.75712413e+05
1.35000000e+02	5.79889875e+05
1.36000000e+02	5.84066532e+05
1.37000000e+02	5.88241666e+05
1.38000000e+02	5.92415535e+05
1.39000000e+02	5.96587727e+05
1.40000000e+02	6.00758983e+05
1.41000000e+02	6.04928944e+05
1.42000000e+02	6.09097717e+05
1.43000000e+02	6.13265020e+05
1.44000000e+02	6.17431416e+05
1.45000000e+02	6.21596610e+05
1.46000000e+02	6.25760715e+05
1.47000000e+02	6.29923819e+05
1.48000000e+02	6.34085759e+05
1.49000000e+02	6.38246673e+05
1.50000000e+02	6.42406803e+05
1.51000000e+02	6.46565927e+05
1.52000000e+02	6.50724195e+05
1.53000000e+02	6.54881606e+05
1.54000000e+02	6.59038182e+05
1.55000000e+02	6.63194029e+05
1.56000000e+02	6.67349016e+05
1.57000000e+02	6.71503417e+05
1.58000000e+02	6.75657160e+05
1.59000000e+02	6.79810261e+05
1.60000000e+02	6.83962807e+05
1.61000000e+02	6.88114843e+05
1.62000000e+02	6.92266300e+05
1.63000000e+02	6.96417364e+05
1.64000000e+02	7.00568053e+05
1.65000000e+02	7.04718367e+05
1.66000000e+02	7.08868394e+05
1.67000000e+02	7.13018158e+05
1.68000000e+02	7.17167739e+05
1.69000000e+02	7.21317078e+05
1.70000000e+02	7.25466369e+05
1.71000000e+02	7.29615611e+05
1.72000000e+02	7.33764820e+05
1.73000000e+02	7.37914097e+05
1.74000000e+02	7.42063470e+05
1.75000000e+02	7.46212970e+05
1.76000000e+02	7.50362734e+05
1.77000000e+02	7.54512756e+05
1.78000000e+02	7.58663110e+05
1.79000000e+02	7.62813889e+05
1.80000000e+02	7.66965070e+05
1.81000000e+02	7.71116801e+05
1.82000000e+02	7.75269180e+05
1.83000000e+02	7.79422135e+05
1.84000000e+02	7.83575892e+05
1.85000000e+02	7.87730355e+05
1.86000000e+02	7.91885805e+05
1.87000000e+02	7.96042148e+05
1.88000000e+02	8.00199480e+05
1.89000000e+02	8.04358034e+05
1.90000000e+02	8.08517619e+05
1.91000000e+02	8.12678619e+05
1.92000000e+02	8.16840943e+05
1.93000000e+02	8.21004624e+05
1.94000000e+02	8.25169978e+05
1.95000000e+02	8.29336920e+05
1.96000000e+02	8.33505548e+05
1.97000000e+02	8.37676060e+05
1.98000000e+02	8.41848494e+05
1.99000000e+02	8.46023024e+05
2.00000000e+02	8.50199611e+05
2.01000000e+02	8.54378495e+05
2.02000000e+02	8.58559751e+05
2.03000000e+02	8.62743652e+05
2.04000000e+02	8.66930187e+05
2.05000000e+02	8.71119315e+05
2.06000000e+02	8.75311410e+05
2.07000000e+02	8.79506530e+05
2.08000000e+02	8.83704818e+05
2.09000000e+02	8.87906426e+05
2.10000000e+02	8.92111509e+05
2.11000000e+02	8.96320166e+05
2.12000000e+02	9.00532631e+05
2.13000000e+02	9.04749067e+05
2.14000000e+02	9.08969609e+05
2.15000000e+02	9.13194450e+05
2.16000000e+02	9.17423763e+05
2.17000000e+02	9.21657742e+05
2.18000000e+02	9.25896595e+05
2.19000000e+02	9.30140510e+05
2.20000000e+02	9.34389659e+05
2.21000000e+02	9.38644327e+05
2.22000000e+02	9.42904685e+05
2.23000000e+02	9.47170976e+05
2.24000000e+02	9.51443438e+05
2.25000000e+02	9.55722303e+05
2.26000000e+02	9.60007818e+05
2.27000000e+02	9.64300250e+05
2.28000000e+02	9.68599867e+05
2.29000000e+02	9.72906935e+05
2.30000000e+02	9.77221732e+05
2.31000000e+02	9.81544563e+05
2.32000000e+02	9.85875737e+05
2.33000000e+02	9.90215523e+05
2.34000000e+02	9.94564279e+05
2.35000000e+02	9.98922335e+05
2.36000000e+02	1.00328999e+06
2.37000000e+02	1.00766762e+06
2.38000000e+02	1.01205558e+06
2.39000000e+02	1.01645423e+06
2.40000000e+02	1.02086396e+06
2.41000000e+02	1.02528515e+06
2.42000000e+02	1.02971821e+06
2.43000000e+02	1.03416358e+06
2.44000000e+02	1.03862162e+06
2.45000000e+02	1.04309277e+06
2.46000000e+02	1.04757755e+06
2.47000000e+02	1.05207632e+06
2.48000000e+02	1.05658964e+06
2.49000000e+02	1.06111797e+06
2.50000000e+02	1.06566177e+06
2.51000000e+02	1.07022158e+06
2.52000000e+02	1.07479793e+06
2.53000000e+02	1.07939131e+06
2.54000000e+02	1.08400237e+06
2.55000000e+02	1.08863161e+06
2.56000000e+02	1.09327959e+06
2.57000000e+02	1.09794693e+06
2.58000000e+02	1.10263423e+06
2.59000000e+02	1.10734213e+06
2.60000000e+02	1.11207124e+06
2.61000000e+02	1.11682222e+06
2.62000000e+02	1.12159574e+06
2.63000000e+02	1.12639249e+06
2.64000000e+02	1.13121317e+06
2.65000000e+02	1.13605849e+06
2.66000000e+02	1.14092919e+06
2.67000000e+02	1.14582596e+06
2.68000000e+02	1.15074963e+06
2.69000000e+02	1.15570094e+06
2.70000000e+02	1.16068070e+06
2.71000000e+02	1.16568973e+06
2.72000000e+02	1.17072879e+06
2.73000000e+02	1.17579880e+06
2.74000000e+02	1.18090061e+06
2.75000000e+02	1.18603507e+06
2.76000000e+02	1.19120305e+06
2.77000000e+02	1.19640552e+06
2.78000000e+02	1.20164337e+06
2.79000000e+02	1.20691755e+06
2.80000000e+02	1.21222903e+06
2.81000000e+02	1.21757877e+06
2.82000000e+02	1.22296778e+06
2.83000000e+02	1.22839706e+06
2.84000000e+02	1.23386765e+06
2.85000000e+02	1.23938058e+06
2.86000000e+02	1.24493692e+06
2.87000000e+02	1.25053775e+06
2.88000000e+02	1.25618415e+06
2.89000000e+02	1.26187725e+06
2.90000000e+02	1.26761817e+06
2.91000000e+02	1.27340804e+06
2.92000000e+02	1.27924803e+06
2.93000000e+02	1.28513931e+06
2.94000000e+02	1.29108308e+06
2.95000000e+02	1.29708052e+06
2.96000000e+02	1.30313287e+06
2.97000000e+02	1.30924136e+06
2.98000000e+02	1.31540723e+06
2.99000000e+02	1.32163175e+06
3.00000000e+02	1.32791620e+06
3.01000000e+02	1.33426185e+06
3.02000000e+02	1.34067002e+06
3.03000000e+02	1.34714202e+06
3.04000000e+02	1.35367917e+06
3.05000000e+02	1.36028281e+06
3.06000000e+02	1.36695430e+06
3.07000000e+02	1.37369498e+06
3.08000000e+02	1.38050624e+06
3.09000000e+02	1.38738946e+06
3.10000000e+02	1.39434601e+06
3.11000000e+02	1.40137731e+06
3.12000000e+02	1.40848475e+06
3.13000000e+02	1.41566976e+06
3.14000000e+02	1.42293374e+06
3.15000000e+02	1.43027814e+06
3.16000000e+02	1.43770437e+06
3.17000000e+02	1.44521389e+06
3.18000000e+02	1.45280813e+06
3.19000000e+02	1.46048855e+06
3.20000000e+02	1.46825658e+06
3.21000000e+02	1.47611369e+06
3.22000000e+02	1.48406133e+06
3.23000000e+02	1.49210095e+06
3.24000000e+02	1.50023402e+06
3.25000000e+02	1.50846198e+06
3.26000000e+02	1.51678630e+06
3.27000000e+02	1.52520844e+06
3.28000000e+02	1.53372983e+06
3.29000000e+02	1.54235195e+06
3.30000000e+02	1.55107622e+06
3.31000000e+02	1.55990411e+06
3.32000000e+02	1.56883704e+06
3.33000000e+02	1.57787645e+06
3.34000000e+02	1.58702377e+06
3.35000000e+02	1.59628042e+06
3.36000000e+02	1.60564782e+06
3.37000000e+02	1.61512738e+06
3.38000000e+02	1.62472049e+06
3.39000000e+02	1.63442855e+06
3.40000000e+02	1.64425294e+06
3.41000000e+02	1.65419504e+06
3.42000000e+02	1.66425620e+06
3.43000000e+02	1.67443779e+06
3.44000000e+02	1.68474113e+06
3.45000000e+02	1.69516757e+06
3.46000000e+02	1.70571842e+06
3.47000000e+02	1.71639498e+06
3.48000000e+02	1.72719855e+06
3.49000000e+02	1.73813040e+06
3.50000000e+02	1.74919181e+06
3.51000000e+02	1.76038402e+06
3.52000000e+02	1.77170826e+06
3.53000000e+02	1.78316576e+06
3.54000000e+02	1.79475773e+06
3.55000000e+02	1.80648534e+06
3.56000000e+02	1.81834977e+06
3.57000000e+02	1.83035217e+06
3.58000000e+02	1.84249367e+06
3.59000000e+02	1.85477540e+06
3.60000000e+02	1.86719844e+06
3.61000000e+02	1.87976388e+06
3.62000000e+02	1.89247276e+06
3.63000000e+02	1.90532613e+06
3.64000000e+02	1.91832498e+06
3.65000000e+02	1.93147031e+06
3.66000000e+02	1.94476309e+06
3.67000000e+02	1.95820424e+06
3.68000000e+02	1.97179468e+06
3.69000000e+02	1.98553529e+06
3.70000000e+02	1.99942693e+06
3.71000000e+02	2.01347042e+06
3.72000000e+02	2.02766655e+06
3.73000000e+02	2.04201609e+06
3.74000000e+02	2.05651977e+06
3.75000000e+02	2.07117827e+06
3.76000000e+02	2.08599225e+06
3.77000000e+02	2.10096233e+06
3.78000000e+02	2.11608909e+06
3.79000000e+02	2.13137305e+06
3.80000000e+02	2.14681472e+06
3.81000000e+02	2.16241454e+06
3.82000000e+02	2.17817290e+06
3.83000000e+02	2.19409015e+06
3.84000000e+02	2.21016660e+06
3.85000000e+02	2.22640249e+06
3.86000000e+02	2.24279800e+06
3.87000000e+02	2.25935326e+06
3.88000000e+02	2.27606835e+06
3.89000000e+02	2.29294328e+06
3.90000000e+02	2.30997798e+06
3.91000000e+02	2.32717233e+06
3.92000000e+02	2.34452614e+06
3.93000000e+02	2.36203914e+06
3.94000000e+02	2.37971099e+06
3.95000000e+02	2.39754128e+06
3.96000000e+02	2.41552951e+06
3.97000000e+02	2.43367510e+06
3.98000000e+02	2.45197738e+06
3.99000000e+02	2.47043561e+06
4.00000000e+02	2.48904894e+06
4.01000000e+02	2.50781645e+06
4.02000000e+02	2.52673711e+06
4.03000000e+02	2.54580979e+06
4.04000000e+02	2.56503328e+06
4.05000000e+02	2.58440624e+06
4.06000000e+02	2.60392726e+06
4.07000000e+02	2.62359479e+06
4.08000000e+02	2.64340720e+06
4.09000000e+02	2.66336273e+06
4.10000000e+02	2.68345952e+06
4.11000000e+02	2.70369559e+06
4.12000000e+02	2.72406885e+06
4.13000000e+02	2.74457709e+06
4.14000000e+02	2.76521797e+06
4.15000000e+02	2.78598904e+06
4.16000000e+02	2.80688773e+06
4.17000000e+02	2.82791136e+06
4.18000000e+02	2.84905709e+06
4.19000000e+02	2.87032199e+06
4.20000000e+02	2.89170300e+06
4.21000000e+02	2.91319692e+06
4.22000000e+02	2.93480043e+06
4.23000000e+02	2.95651011e+06
4.24000000e+02	2.97832239e+06
4.25000000e+02	3.00023358e+06
4.26000000e+02	3.02223988e+06
4.27000000e+02	3.04433735e+06
4.28000000e+02	3.06652196e+06
4.29000000e+02	3.08878954e+06
4.30000000e+02	3.11113581e+06
4.31000000e+02	3.13355638e+06
4.32000000e+02	3.15604675e+06
4.33000000e+02	3.17860231e+06
4.34000000e+02	3.20121836e+06
4.35000000e+02	3.22389008e+06
4.36000000e+02	3.24661257e+06
4.37000000e+02	3.26938085e+06
4.38000000e+02	3.29218982e+06
4.39000000e+02	3.31503433e+06
4.40000000e+02	3.33790915e+06
4.41000000e+02	3.36080897e+06
4.42000000e+02	3.38372842e+06
4.43000000e+02	3.40666208e+06
4.44000000e+02	3.42960448e+06
4.45000000e+02	3.45255009e+06
4.46000000e+02	3.47549337e+06
4.47000000e+02	3.49842873e+06
4.48000000e+02	3.52135057e+06
4.49000000e+02	3.54425327e+06
4.50000000e+02	3.56713120e+06
4.51000000e+02	3.58997875e+06
4.52000000e+02	3.61279030e+06
4.53000000e+02	3.63556026e+06
4.54000000e+02	3.65828307e+06
4.55000000e+02	3.68095320e+06
4.56000000e+02	3.70356515e+06
4.57000000e+02	3.72611349e+06
4.58000000e+02	3.74859285e+06
4.59000000e+02	3.77099790e+06
4.60000000e+02	3.79332341e+06
4.61000000e+02	3.81556422e+06
4.62000000e+02	3.83771526e+06
4.63000000e+02	3.85977155e+06
4.64000000e+02	3.88172821e+06
4.65000000e+02	3.90358047e+06
4.66000000e+02	3.92532366e+06
4.67000000e+02	3.94695322e+06
4.68000000e+02	3.96846472e+06
4.69000000e+02	3.98985386e+06
4.70000000e+02	4.01111642e+06
4.71000000e+02	4.03224835e+06
4.72000000e+02	4.05324570e+06
4.73000000e+02	4.07410465e+06
4.74000000e+02	4.09482149e+06
4.75000000e+02	4.11539265e+06
4.76000000e+02	4.13581468e+06
4.77000000e+02	4.15608422e+06
4.78000000e+02	4.17619804e+06
4.79000000e+02	4.19615301e+06
4.80000000e+02	4.21594609e+06
4.81000000e+02	4.23557434e+06
4.82000000e+02	4.25503489e+06
4.83000000e+02	4.27432495e+06
4.84000000e+02	4.29344179e+06
4.85000000e+02	4.31238272e+06
4.86000000e+02	4.33114511e+06
4.87000000e+02	4.34972634e+06
4.88000000e+02	4.36812381e+06
4.89000000e+02	4.38633491e+06
4.90000000e+02	4.40435701e+06
4.91000000e+02	4.42218746e+06
4.92000000e+02	4.43982357e+06
4.93000000e+02	4.45726257e+06
4.94000000e+02	4.47450161e+06
4.95000000e+02	4.49153775e+06
4.96000000e+02	4.50836794e+06
4.97000000e+02	4.52498900e+06
4.98000000e+02	4.54139758e+06
4.99000000e+02	4.55759021e+06
5.00000000e+02	4.57356320e+06
5.01000000e+02	4.58931268e+06
5.02000000e+02	4.60483457e+06
5.03000000e+02	4.62012456e+06
5.04000000e+02	4.63517810e+06
5.05000000e+02	4.64999039e+06
5.06000000e+02	4.66455635e+06
5.07000000e+02	4.67887063e+06
5.08000000e+02	4.69292757e+06
5.09000000e+02	4.70672125e+06
5.10000000e+02	4.72024538e+06
5.11000000e+02	4.73349342e+06
5.12000000e+02	4.74645845e+06
5.13000000e+02	4.75913324e+06
5.14000000e+02	4.77151024e+06
5.15000000e+02	4.78358155e+06
5.16000000e+02	4.79533894e+06
5.17000000e+02	4.80677385e+06
5.18000000e+02	4.81787738e+06
5.19000000e+02	4.82864032e+06
5.20000000e+02	4.83905312e+06
5.21000000e+02	4.84910594e+06
5.22000000e+02	4.85878862e+06
5.23000000e+02	4.86809072e+06
5.24000000e+02	4.87700152e+06
5.25000000e+02	4.88551004e+06
5.26000000e+02	4.89360506e+06
5.27000000e+02	4.90127512e+06
5.28000000e+02	4.90850856e+06
5.29000000e+02	4.91529355e+06
5.30000000e+02	4.92161809e+06
5.31000000e+02	4.92747003e+06
5.32000000e+02	4.93283715e+06
5.33000000e+02	4.93770711e+06
5.34000000e+02	4.94206754e+06
5.35000000e+02	4.94590607e+06
5.36000000e+02	4.94921031e+06
5.37000000e+02	4.95196792e+06
5.38000000e+02	4.95416668e+06
5.39000000e+02	4.95579444e+06
5.40000000e+02	4.95683922e+06
5.41000000e+02	4.95728924e+06
5.42000000e+02	4.95713294e+06
5.43000000e+02	4.95635902e+06
5.44000000e+02	4.95495649e+06
5.45000000e+02	4.95291470e+06
5.46000000e+02	4.95022338e+06
5.47000000e+02	4.94687267e+06
5.48000000e+02	4.94285317e+06
5.49000000e+02	4.93815597e+06
5.50000000e+02	4.93277268e+06
5.51000000e+02	4.92669549e+06
5.52000000e+02	4.91991715e+06
5.53000000e+02	4.91243107e+06
5.54000000e+02	4.90423128e+06
5.55000000e+02	4.89531253e+06
5.56000000e+02	4.88567026e+06
5.57000000e+02	4.87530065e+06
5.58000000e+02	4.86420064e+06
5.59000000e+02	4.85236795e+06
5.60000000e+02	4.83980110e+06
5.61000000e+02	4.82649940e+06
5.62000000e+02	4.81246300e+06
5.63000000e+02	4.79769289e+06
5.64000000e+02	4.78219088e+06
5.65000000e+02	4.76595964e+06
5.66000000e+02	4.74900265e+06
5.67000000e+02	4.73132426e+06
5.68000000e+02	4.71292965e+06
5.69000000e+02	4.69382479e+06
5.70000000e+02	4.67401650e+06
5.71000000e+02	4.65351237e+06
5.72000000e+02	4.63232076e+06
5.73000000e+02	4.61045079e+06
5.74000000e+02	4.58791232e+06
5.75000000e+02	4.56471587e+06
5.76000000e+02	4.54087266e+06
5.77000000e+02	4.51639456e+06
5.78000000e+02	4.49129400e+06
5.79000000e+02	4.46558404e+06
5.80000000e+02	4.43927821e+06
5.81000000e+02	4.41239058e+06
5.82000000e+02	4.38493563e+06
5.83000000e+02	4.35692829e+06
5.84000000e+02	4.32838382e+06
5.85000000e+02	4.29931782e+06
5.86000000e+02	4.26974616e+06
5.87000000e+02	4.23968494e+06
5.88000000e+02	4.20915047e+06
5.89000000e+02	4.17815918e+06
5.90000000e+02	4.14672762e+06
5.91000000e+02	4.11487241e+06
5.92000000e+02	4.08261016e+06
5.93000000e+02	4.04995748e+06
5.94000000e+02	4.01693089e+06
5.95000000e+02	3.98354683e+06
5.96000000e+02	3.94982158e+06
5.97000000e+02	3.91577125e+06
5.98000000e+02	3.88141175e+06
5.99000000e+02	3.84675873e+06
6.00000000e+02	3.81182761e+06
6.01000000e+02	3.77663346e+06
6.02000000e+02	3.74119107e+06
6.03000000e+02	3.70551486e+06
6.04000000e+02	3.66961888e+06
6.05000000e+02	3.63351679e+06
6.06000000e+02	3.59722185e+06
6.07000000e+02	3.56074688e+06
6.08000000e+02	3.52410429e+06
6.09000000e+02	3.48730601e+06
6.10000000e+02	3.45036353e+06
6.11000000e+02	3.41328790e+06
6.12000000e+02	3.37608967e+06
6.13000000e+02	3.33877894e+06
6.14000000e+02	3.30136533e+06
6.15000000e+02	3.26385796e+06
6.16000000e+02	3.22626549e+06
6.17000000e+02	3.18859611e+06
6.18000000e+02	3.15085751e+06
6.19000000e+02	3.11305691e+06
6.20000000e+02	3.07520110e+06
6.21000000e+02	3.03729637e+06
6.22000000e+02	2.99934862e+06
6.23000000e+02	2.96136329e+06
6.24000000e+02	2.92334542e+06
6.25000000e+02	2.88529964e+06
6.26000000e+02	2.84723016e+06
6.27000000e+02	2.80914084e+06
6.28000000e+02	2.77103516e+06
6.29000000e+02	2.73291626e+06
6.30000000e+02	2.69478692e+06
6.31000000e+02	2.65664959e+06
6.32000000e+02	2.61850634e+06
6.33000000e+02	2.58035898e+06
6.34000000e+02	2.54220901e+06
6.35000000e+02	2.50405759e+06
6.36000000e+02	2.46590555e+06
6.37000000e+02	2.42775350e+06
6.38000000e+02	2.38960199e+06
6.39000000e+02	2.35145162e+06
6.40000000e+02	2.31330285e+06
6.41000000e+02	2.27515573e+06
6.42000000e+02	2.23700977e+06
6.43000000e+02	2.19886419e+06
6.44000000e+02	2.16071825e+06
6.45000000e+02	2.12257137e+06
6.46000000e+02	2.08442306e+06
6.47000000e+02	2.04627268e+06
6.48000000e+02	2.00811944e+06
6.49000000e+02	1.96996232e+06
6.50000000e+02	1.93180010e+06
6.51000000e+02	1.89363137e+06
6.52000000e+02	1.85545469e+06
6.53000000e+02	1.81726881e+06
6.54000000e+02	1.77907266e+06
6.55000000e+02	1.74086523e+06
6.56000000e+02	1.70264549e+06
6.57000000e+02	1.66441235e+06
6.58000000e+02	1.62616454e+06
6.59000000e+02	1.58790049e+06
