# Profil de ElecX au temps 1.100000000000014e-11 
# simu : /Volumes/MERCURE/JOBS/Zeq2_tanh_50mic_2p1e19_B0_20ps/GNU/ElecX@y-c.set
# col 0 : abscisse (um)
# col 1 : ElecX (V/m)
0.00000000e+00	0.00000000e+00
1.00000000e+00	2.32070232e+03
2.00000000e+00	1.71398181e+03
3.00000000e+00	2.33992205e+03
4.00000000e+00	4.02862313e+03
5.00000000e+00	4.96437820e+03
6.00000000e+00	5.94594461e+03
7.00000000e+00	6.94445257e+03
8.00000000e+00	7.94314051e+03
9.00000000e+00	8.94823347e+03
1.00000000e+01	9.95652754e+03
1.10000000e+01	1.09691337e+04
1.20000000e+01	1.19867186e+04
1.30000000e+01	1.30093014e+04
1.40000000e+01	1.40379112e+04
1.50000000e+01	1.50725994e+04
1.60000000e+01	1.61140597e+04
1.70000000e+01	1.71626338e+04
1.80000000e+01	1.82179129e+04
1.90000000e+01	1.92825569e+04
2.00000000e+01	2.03539859e+04
2.10000000e+01	2.14357883e+04
2.20000000e+01	2.25252838e+04
2.30000000e+01	2.36259045e+04
2.40000000e+01	2.47355968e+04
2.50000000e+01	2.58562483e+04
2.60000000e+01	2.69881684e+04
2.70000000e+01	2.81307820e+04
2.80000000e+01	2.92857070e+04
2.90000000e+01	3.04529721e+04
3.00000000e+01	3.16326526e+04
3.10000000e+01	3.28253966e+04
3.20000000e+01	3.40318820e+04
3.30000000e+01	3.52524014e+04
3.40000000e+01	3.64868191e+04
3.50000000e+01	3.77363733e+04
3.60000000e+01	3.90010935e+04
3.70000000e+01	4.02815001e+04
3.80000000e+01	4.15775364e+04
3.90000000e+01	4.28903342e+04
4.00000000e+01	4.42199075e+04
4.10000000e+01	4.55667847e+04
4.20000000e+01	4.69311249e+04
4.30000000e+01	4.83135286e+04
4.40000000e+01	4.97144991e+04
4.50000000e+01	5.11342523e+04
4.60000000e+01	5.25733180e+04
4.70000000e+01	5.40318120e+04
4.80000000e+01	5.55104144e+04
4.90000000e+01	5.70094680e+04
5.00000000e+01	5.85292729e+04
5.10000000e+01	6.00702520e+04
5.20000000e+01	6.16328389e+04
5.30000000e+01	6.32171192e+04
5.40000000e+01	6.48239134e+04
5.50000000e+01	6.64533104e+04
5.60000000e+01	6.81057430e+04
5.70000000e+01	6.97815594e+04
5.80000000e+01	7.14811430e+04
5.90000000e+01	7.32048871e+04
6.00000000e+01	7.49529523e+04
6.10000000e+01	7.67259853e+04
6.20000000e+01	7.85241399e+04
6.30000000e+01	8.03478073e+04
6.40000000e+01	8.21973332e+04
6.50000000e+01	8.40730497e+04
6.60000000e+01	8.59752919e+04
6.70000000e+01	8.79043923e+04
6.80000000e+01	8.98606856e+04
6.90000000e+01	9.18444477e+04
7.00000000e+01	9.38560463e+04
7.10000000e+01	9.58957993e+04
7.20000000e+01	9.79639904e+04
7.30000000e+01	1.00060935e+05
7.40000000e+01	1.02186935e+05
7.50000000e+01	1.04342286e+05
7.60000000e+01	1.06527287e+05
7.70000000e+01	1.08742222e+05
7.80000000e+01	1.10987378e+05
7.90000000e+01	1.13263035e+05
8.00000000e+01	1.15569470e+05
8.10000000e+01	1.17906952e+05
8.20000000e+01	1.20275600e+05
8.30000000e+01	1.22675857e+05
8.40000000e+01	1.25107965e+05
8.50000000e+01	1.27572174e+05
8.60000000e+01	1.30068730e+05
8.70000000e+01	1.32597876e+05
8.80000000e+01	1.35159848e+05
8.90000000e+01	1.37754879e+05
9.00000000e+01	1.40383197e+05
9.10000000e+01	1.43045023e+05
9.20000000e+01	1.45740575e+05
9.30000000e+01	1.48470064e+05
9.40000000e+01	1.51233700e+05
9.50000000e+01	1.54031683e+05
9.60000000e+01	1.56864211e+05
9.70000000e+01	1.59731477e+05
9.80000000e+01	1.62633669e+05
9.90000000e+01	1.65570967e+05
1.00000000e+02	1.68543550e+05
1.01000000e+02	1.71551590e+05
1.02000000e+02	1.74595252e+05
1.03000000e+02	1.77674699e+05
1.04000000e+02	1.80790087e+05
1.05000000e+02	1.83941567e+05
1.06000000e+02	1.87129284e+05
1.07000000e+02	1.90353380e+05
1.08000000e+02	1.93613986e+05
1.09000000e+02	1.96911236e+05
1.10000000e+02	2.00245255e+05
1.11000000e+02	2.03616157e+05
1.12000000e+02	2.07024081e+05
1.13000000e+02	2.10468997e+05
1.14000000e+02	2.13950862e+05
1.15000000e+02	2.17470177e+05
1.16000000e+02	2.21026962e+05
1.17000000e+02	2.24621295e+05
1.18000000e+02	2.28253247e+05
1.19000000e+02	2.31922886e+05
1.20000000e+02	2.35630274e+05
1.21000000e+02	2.39375474e+05
1.22000000e+02	2.43158543e+05
1.23000000e+02	2.46979536e+05
1.24000000e+02	2.50838501e+05
1.25000000e+02	2.54735487e+05
1.26000000e+02	2.58670534e+05
1.27000000e+02	2.62643679e+05
1.28000000e+02	2.66654955e+05
1.29000000e+02	2.70704390e+05
1.30000000e+02	2.74792008e+05
1.31000000e+02	2.78917827e+05
1.32000000e+02	2.83081862e+05
1.33000000e+02	2.87284121e+05
1.34000000e+02	2.91524612e+05
1.35000000e+02	2.95803334e+05
1.36000000e+02	3.00120283e+05
1.37000000e+02	3.04475453e+05
1.38000000e+02	3.08868830e+05
1.39000000e+02	3.13300399e+05
1.40000000e+02	3.17770138e+05
1.41000000e+02	3.22278025e+05
1.42000000e+02	3.26824030e+05
1.43000000e+02	3.31408120e+05
1.44000000e+02	3.36030261e+05
1.45000000e+02	3.40690412e+05
1.46000000e+02	3.45388529e+05
1.47000000e+02	3.50124566e+05
1.48000000e+02	3.54898472e+05
1.49000000e+02	3.59710193e+05
1.50000000e+02	3.64559672e+05
1.51000000e+02	3.69446848e+05
1.52000000e+02	3.74371658e+05
1.53000000e+02	3.79334034e+05
1.54000000e+02	3.84333908e+05
1.55000000e+02	3.89371206e+05
1.56000000e+02	3.94445853e+05
1.57000000e+02	3.99557772e+05
1.58000000e+02	4.04706881e+05
1.59000000e+02	4.09893097e+05
1.60000000e+02	4.15116336e+05
1.61000000e+02	4.20376508e+05
1.62000000e+02	4.25673524e+05
1.63000000e+02	4.31007292e+05
1.64000000e+02	4.36377717e+05
1.65000000e+02	4.41784703e+05
1.66000000e+02	4.47228153e+05
1.67000000e+02	4.52707967e+05
1.68000000e+02	4.58224043e+05
1.69000000e+02	4.63776279e+05
1.70000000e+02	4.69364571e+05
1.71000000e+02	4.74988813e+05
1.72000000e+02	4.80648898e+05
1.73000000e+02	4.86344718e+05
1.74000000e+02	4.92076166e+05
1.75000000e+02	4.97843130e+05
1.76000000e+02	5.03645501e+05
1.77000000e+02	5.09483167e+05
1.78000000e+02	5.15356016e+05
1.79000000e+02	5.21263937e+05
1.80000000e+02	5.27206816e+05
1.81000000e+02	5.33184541e+05
1.82000000e+02	5.39196998e+05
1.83000000e+02	5.45244074e+05
1.84000000e+02	5.51325655e+05
1.85000000e+02	5.57441629e+05
1.86000000e+02	5.63591882e+05
1.87000000e+02	5.69776302e+05
1.88000000e+02	5.75994777e+05
1.89000000e+02	5.82247194e+05
1.90000000e+02	5.88533443e+05
1.91000000e+02	5.94853412e+05
1.92000000e+02	6.01206993e+05
1.93000000e+02	6.07594076e+05
1.94000000e+02	6.14014554e+05
1.95000000e+02	6.20468319e+05
1.96000000e+02	6.26955266e+05
1.97000000e+02	6.33475290e+05
1.98000000e+02	6.40028289e+05
1.99000000e+02	6.46614160e+05
2.00000000e+02	6.53232804e+05
2.01000000e+02	6.59884121e+05
2.02000000e+02	6.66568016e+05
2.03000000e+02	6.73284392e+05
2.04000000e+02	6.80033157e+05
2.05000000e+02	6.86814219e+05
2.06000000e+02	6.93627490e+05
2.07000000e+02	7.00472881e+05
2.08000000e+02	7.07350308e+05
2.09000000e+02	7.14259688e+05
2.10000000e+02	7.21200941e+05
2.11000000e+02	7.28173989e+05
2.12000000e+02	7.35178757e+05
2.13000000e+02	7.42215171e+05
2.14000000e+02	7.49283163e+05
2.15000000e+02	7.56382663e+05
2.16000000e+02	7.63513609e+05
2.17000000e+02	7.70675939e+05
2.18000000e+02	7.77869593e+05
2.19000000e+02	7.85094517e+05
2.20000000e+02	7.92350658e+05
2.21000000e+02	7.99637966e+05
2.22000000e+02	8.06956398e+05
2.23000000e+02	8.14305908e+05
2.24000000e+02	8.21686460e+05
2.25000000e+02	8.29098017e+05
2.26000000e+02	8.36540547e+05
2.27000000e+02	8.44014023e+05
2.28000000e+02	8.51518420e+05
2.29000000e+02	8.59053717e+05
2.30000000e+02	8.66619898e+05
2.31000000e+02	8.74216949e+05
2.32000000e+02	8.81844863e+05
2.33000000e+02	8.89503635e+05
2.34000000e+02	8.97193264e+05
2.35000000e+02	9.04913754e+05
2.36000000e+02	9.12665115e+05
2.37000000e+02	9.20447358e+05
2.38000000e+02	9.28260501e+05
2.39000000e+02	9.36104566e+05
2.40000000e+02	9.43979580e+05
2.41000000e+02	9.51885574e+05
2.42000000e+02	9.59822584e+05
2.43000000e+02	9.67790652e+05
2.44000000e+02	9.75789825e+05
2.45000000e+02	9.83820153e+05
2.46000000e+02	9.91881694e+05
2.47000000e+02	9.99974509e+05
2.48000000e+02	1.00809867e+06
2.49000000e+02	1.01625424e+06
2.50000000e+02	1.02444130e+06
2.51000000e+02	1.03265995e+06
2.52000000e+02	1.04091026e+06
2.53000000e+02	1.04919234e+06
2.54000000e+02	1.05750629e+06
2.55000000e+02	1.06585221e+06
2.56000000e+02	1.07423022e+06
2.57000000e+02	1.08264045e+06
2.58000000e+02	1.09108301e+06
2.59000000e+02	1.09955805e+06
2.60000000e+02	1.10806571e+06
2.61000000e+02	1.11660613e+06
2.62000000e+02	1.12517947e+06
2.63000000e+02	1.13378590e+06
2.64000000e+02	1.14242558e+06
2.65000000e+02	1.15109869e+06
2.66000000e+02	1.15980542e+06
2.67000000e+02	1.16854597e+06
2.68000000e+02	1.17732052e+06
2.69000000e+02	1.18612930e+06
2.70000000e+02	1.19497253e+06
2.71000000e+02	1.20385042e+06
2.72000000e+02	1.21276322e+06
2.73000000e+02	1.22171118e+06
2.74000000e+02	1.23069454e+06
2.75000000e+02	1.23971358e+06
2.76000000e+02	1.24876856e+06
2.77000000e+02	1.25785978e+06
2.78000000e+02	1.26698753e+06
2.79000000e+02	1.27615211e+06
2.80000000e+02	1.28535385e+06
2.81000000e+02	1.29459306e+06
2.82000000e+02	1.30387010e+06
2.83000000e+02	1.31318530e+06
2.84000000e+02	1.32253905e+06
2.85000000e+02	1.33193171e+06
2.86000000e+02	1.34136368e+06
2.87000000e+02	1.35083535e+06
2.88000000e+02	1.36034715e+06
2.89000000e+02	1.36989951e+06
2.90000000e+02	1.37949287e+06
2.91000000e+02	1.38912770e+06
2.92000000e+02	1.39880447e+06
2.93000000e+02	1.40852368e+06
2.94000000e+02	1.41828583e+06
2.95000000e+02	1.42809147e+06
2.96000000e+02	1.43794112e+06
2.97000000e+02	1.44783535e+06
2.98000000e+02	1.45777475e+06
2.99000000e+02	1.46775992e+06
3.00000000e+02	1.47779147e+06
3.01000000e+02	1.48787007e+06
3.02000000e+02	1.49799636e+06
3.03000000e+02	1.50817103e+06
3.04000000e+02	1.51839480e+06
3.05000000e+02	1.52866840e+06
3.06000000e+02	1.53899260e+06
3.07000000e+02	1.54936816e+06
3.08000000e+02	1.55979591e+06
3.09000000e+02	1.57027669e+06
3.10000000e+02	1.58081136e+06
3.11000000e+02	1.59140081e+06
3.12000000e+02	1.60204598e+06
3.13000000e+02	1.61274782e+06
3.14000000e+02	1.62350732e+06
3.15000000e+02	1.63432551e+06
3.16000000e+02	1.64520345e+06
3.17000000e+02	1.65614222e+06
3.18000000e+02	1.66714297e+06
3.19000000e+02	1.67820686e+06
3.20000000e+02	1.68933510e+06
3.21000000e+02	1.70052894e+06
3.22000000e+02	1.71178968e+06
3.23000000e+02	1.72311866e+06
3.24000000e+02	1.73451724e+06
3.25000000e+02	1.74598687e+06
3.26000000e+02	1.75752902e+06
3.27000000e+02	1.76914522e+06
3.28000000e+02	1.78083704e+06
3.29000000e+02	1.79260611e+06
3.30000000e+02	1.80445412e+06
3.31000000e+02	1.81638281e+06
3.32000000e+02	1.82839397e+06
3.33000000e+02	1.84048946e+06
3.34000000e+02	1.85267120e+06
3.35000000e+02	1.86494116e+06
3.36000000e+02	1.87730140e+06
3.37000000e+02	1.88975401e+06
3.38000000e+02	1.90230118e+06
3.39000000e+02	1.91494515e+06
3.40000000e+02	1.92768824e+06
3.41000000e+02	1.94053283e+06
3.42000000e+02	1.95348139e+06
3.43000000e+02	1.96653644e+06
3.44000000e+02	1.97970062e+06
3.45000000e+02	1.99297660e+06
3.46000000e+02	2.00636715e+06
3.47000000e+02	2.01987514e+06
3.48000000e+02	2.03350349e+06
3.49000000e+02	2.04725522e+06
3.50000000e+02	2.06113343e+06
3.51000000e+02	2.07514131e+06
3.52000000e+02	2.08928213e+06
3.53000000e+02	2.10355925e+06
3.54000000e+02	2.11797612e+06
3.55000000e+02	2.13253628e+06
3.56000000e+02	2.14724334e+06
3.57000000e+02	2.16210101e+06
3.58000000e+02	2.17711311e+06
3.59000000e+02	2.19228351e+06
3.60000000e+02	2.20761619e+06
3.61000000e+02	2.22311520e+06
3.62000000e+02	2.23878471e+06
3.63000000e+02	2.25462894e+06
3.64000000e+02	2.27065220e+06
3.65000000e+02	2.28685889e+06
3.66000000e+02	2.30325348e+06
3.67000000e+02	2.31984053e+06
3.68000000e+02	2.33662466e+06
3.69000000e+02	2.35361056e+06
3.70000000e+02	2.37080300e+06
3.71000000e+02	2.38820681e+06
3.72000000e+02	2.40582687e+06
3.73000000e+02	2.42366812e+06
3.74000000e+02	2.44173555e+06
3.75000000e+02	2.46003420e+06
3.76000000e+02	2.47856914e+06
3.77000000e+02	2.49734547e+06
3.78000000e+02	2.51636833e+06
3.79000000e+02	2.53564286e+06
3.80000000e+02	2.55517423e+06
3.81000000e+02	2.57496759e+06
3.82000000e+02	2.59502811e+06
3.83000000e+02	2.61536092e+06
3.84000000e+02	2.63597115e+06
3.85000000e+02	2.65686388e+06
3.86000000e+02	2.67804415e+06
3.87000000e+02	2.69951695e+06
3.88000000e+02	2.72128721e+06
3.89000000e+02	2.74335975e+06
3.90000000e+02	2.76573936e+06
3.91000000e+02	2.78843068e+06
3.92000000e+02	2.81143825e+06
3.93000000e+02	2.83476651e+06
3.94000000e+02	2.85841973e+06
3.95000000e+02	2.88240205e+06
3.96000000e+02	2.90671745e+06
3.97000000e+02	2.93136971e+06
3.98000000e+02	2.95636244e+06
3.99000000e+02	2.98169905e+06
4.00000000e+02	3.00738273e+06
4.01000000e+02	3.03341644e+06
4.02000000e+02	3.05980288e+06
4.03000000e+02	3.08654454e+06
4.04000000e+02	3.11364360e+06
4.05000000e+02	3.14110197e+06
4.06000000e+02	3.16892129e+06
4.07000000e+02	3.19710287e+06
4.08000000e+02	3.22564771e+06
4.09000000e+02	3.25455649e+06
4.10000000e+02	3.28382955e+06
4.11000000e+02	3.31346689e+06
4.12000000e+02	3.34346813e+06
4.13000000e+02	3.37383254e+06
4.14000000e+02	3.40455901e+06
4.15000000e+02	3.43564604e+06
4.16000000e+02	3.46709176e+06
4.17000000e+02	3.49889388e+06
4.18000000e+02	3.53104971e+06
4.19000000e+02	3.56355615e+06
4.20000000e+02	3.59640969e+06
4.21000000e+02	3.62960639e+06
4.22000000e+02	3.66314191e+06
4.23000000e+02	3.69701147e+06
4.24000000e+02	3.73120985e+06
4.25000000e+02	3.76573143e+06
4.26000000e+02	3.80057013e+06
4.27000000e+02	3.83571949e+06
4.28000000e+02	3.87117256e+06
4.29000000e+02	3.90692203e+06
4.30000000e+02	3.94296013e+06
4.31000000e+02	3.97927868e+06
4.32000000e+02	4.01586909e+06
4.33000000e+02	4.05272239e+06
4.34000000e+02	4.08982917e+06
4.35000000e+02	4.12717966e+06
4.36000000e+02	4.16476371e+06
4.37000000e+02	4.20257078e+06
4.38000000e+02	4.24058998e+06
4.39000000e+02	4.27881009e+06
4.40000000e+02	4.31721954e+06
4.41000000e+02	4.35580644e+06
4.42000000e+02	4.39455862e+06
4.43000000e+02	4.43346359e+06
4.44000000e+02	4.47250863e+06
4.45000000e+02	4.51168074e+06
4.46000000e+02	4.55096673e+06
4.47000000e+02	4.59035316e+06
4.48000000e+02	4.62982644e+06
4.49000000e+02	4.66937281e+06
4.50000000e+02	4.70897836e+06
4.51000000e+02	4.74862909e+06
4.52000000e+02	4.78831091e+06
4.53000000e+02	4.82800964e+06
4.54000000e+02	4.86771112e+06
4.55000000e+02	4.90740113e+06
4.56000000e+02	4.94706551e+06
4.57000000e+02	4.98669012e+06
4.58000000e+02	5.02626090e+06
4.59000000e+02	5.06576390e+06
4.60000000e+02	5.10518528e+06
4.61000000e+02	5.14451136e+06
4.62000000e+02	5.18372862e+06
4.63000000e+02	5.22282375e+06
4.64000000e+02	5.26178363e+06
4.65000000e+02	5.30059540e+06
4.66000000e+02	5.33924643e+06
4.67000000e+02	5.37772435e+06
4.68000000e+02	5.41601708e+06
4.69000000e+02	5.45411281e+06
4.70000000e+02	5.49200001e+06
4.71000000e+02	5.52966744e+06
4.72000000e+02	5.56710416e+06
4.73000000e+02	5.60429950e+06
4.74000000e+02	5.64124304e+06
4.75000000e+02	5.67792463e+06
4.76000000e+02	5.71433437e+06
4.77000000e+02	5.75046254e+06
4.78000000e+02	5.78629964e+06
4.79000000e+02	5.82183628e+06
4.80000000e+02	5.85706322e+06
4.81000000e+02	5.89197127e+06
4.82000000e+02	5.92655128e+06
4.83000000e+02	5.96079408e+06
4.84000000e+02	5.99469040e+06
4.85000000e+02	6.02823086e+06
4.86000000e+02	6.06140587e+06
4.87000000e+02	6.09420558e+06
4.88000000e+02	6.12661979e+06
4.89000000e+02	6.15863793e+06
4.90000000e+02	6.19024894e+06
4.91000000e+02	6.22144121e+06
4.92000000e+02	6.25220251e+06
4.93000000e+02	6.28251992e+06
4.94000000e+02	6.31237974e+06
4.95000000e+02	6.34176744e+06
4.96000000e+02	6.37066757e+06
4.97000000e+02	6.39906370e+06
4.98000000e+02	6.42693835e+06
4.99000000e+02	6.45427296e+06
5.00000000e+02	6.48104779e+06
5.01000000e+02	6.50724191e+06
5.02000000e+02	6.53283315e+06
5.03000000e+02	6.55779806e+06
5.04000000e+02	6.58211190e+06
5.05000000e+02	6.60574862e+06
5.06000000e+02	6.62868087e+06
5.07000000e+02	6.65087999e+06
5.08000000e+02	6.67231607e+06
5.09000000e+02	6.69295794e+06
5.10000000e+02	6.71277325e+06
5.11000000e+02	6.73172853e+06
5.12000000e+02	6.74978929e+06
5.13000000e+02	6.76692004e+06
5.14000000e+02	6.78308451e+06
5.15000000e+02	6.79824568e+06
5.16000000e+02	6.81236597e+06
5.17000000e+02	6.82540738e+06
5.18000000e+02	6.83733168e+06
5.19000000e+02	6.84810056e+06
5.20000000e+02	6.85767585e+06
5.21000000e+02	6.86601974e+06
5.22000000e+02	6.87309497e+06
5.23000000e+02	6.87886506e+06
5.24000000e+02	6.88329460e+06
5.25000000e+02	6.88634942e+06
5.26000000e+02	6.88799688e+06
5.27000000e+02	6.88820610e+06
5.28000000e+02	6.88694821e+06
5.29000000e+02	6.88419658e+06
5.30000000e+02	6.87992706e+06
5.31000000e+02	6.87411821e+06
5.32000000e+02	6.86675149e+06
5.33000000e+02	6.85781146e+06
5.34000000e+02	6.84728595e+06
5.35000000e+02	6.83516623e+06
5.36000000e+02	6.82144712e+06
5.37000000e+02	6.80612708e+06
5.38000000e+02	6.78920830e+06
5.39000000e+02	6.77069675e+06
5.40000000e+02	6.75060218e+06
5.41000000e+02	6.72893808e+06
5.42000000e+02	6.70572166e+06
5.43000000e+02	6.68097377e+06
5.44000000e+02	6.65471874e+06
5.45000000e+02	6.62698428e+06
5.46000000e+02	6.59780131e+06
5.47000000e+02	6.56720374e+06
5.48000000e+02	6.53522826e+06
5.49000000e+02	6.50191411e+06
5.50000000e+02	6.46730284e+06
5.51000000e+02	6.43143804e+06
5.52000000e+02	6.39436504e+06
5.53000000e+02	6.35613069e+06
5.54000000e+02	6.31678305e+06
5.55000000e+02	6.27637109e+06
5.56000000e+02	6.23494449e+06
5.57000000e+02	6.19255332e+06
5.58000000e+02	6.14924785e+06
5.59000000e+02	6.10507824e+06
5.60000000e+02	6.06009440e+06
5.61000000e+02	6.01434574e+06
5.62000000e+02	5.96788099e+06
5.63000000e+02	5.92074808e+06
5.64000000e+02	5.87299392e+06
5.65000000e+02	5.82466433e+06
5.66000000e+02	5.77580393e+06
5.67000000e+02	5.72645601e+06
5.68000000e+02	5.67666248e+06
5.69000000e+02	5.62646383e+06
5.70000000e+02	5.57589903e+06
5.71000000e+02	5.52500559e+06
5.72000000e+02	5.47381943e+06
5.73000000e+02	5.42237496e+06
5.74000000e+02	5.37070506e+06
5.75000000e+02	5.31884106e+06
5.76000000e+02	5.26681279e+06
5.77000000e+02	5.21464858e+06
5.78000000e+02	5.16237532e+06
5.79000000e+02	5.11001843e+06
5.80000000e+02	5.05760196e+06
5.81000000e+02	5.00514860e+06
5.82000000e+02	4.95267970e+06
5.83000000e+02	4.90021532e+06
5.84000000e+02	4.84777430e+06
5.85000000e+02	4.79537425e+06
5.86000000e+02	4.74303162e+06
5.87000000e+02	4.69076174e+06
5.88000000e+02	4.63857883e+06
5.89000000e+02	4.58649609e+06
5.90000000e+02	4.53452569e+06
5.91000000e+02	4.48267884e+06
5.92000000e+02	4.43096578e+06
5.93000000e+02	4.37939585e+06
5.94000000e+02	4.32797753e+06
5.95000000e+02	4.27671844e+06
5.96000000e+02	4.22562539e+06
5.97000000e+02	4.17470438e+06
5.98000000e+02	4.12396071e+06
5.99000000e+02	4.07339900e+06
6.00000000e+02	4.02302323e+06
6.01000000e+02	3.97283675e+06
6.02000000e+02	3.92284230e+06
6.03000000e+02	3.87304200e+06
6.04000000e+02	3.82343745e+06
6.05000000e+02	3.77402977e+06
6.06000000e+02	3.72481964e+06
6.07000000e+02	3.67580728e+06
6.08000000e+02	3.62699244e+06
6.09000000e+02	3.57837452e+06
6.10000000e+02	3.52995266e+06
6.11000000e+02	3.48172576e+06
6.12000000e+02	3.43369256e+06
6.13000000e+02	3.38585158e+06
6.14000000e+02	3.33820104e+06
6.15000000e+02	3.29073874e+06
6.16000000e+02	3.24346234e+06
6.17000000e+02	3.19636973e+06
6.18000000e+02	3.14945891e+06
6.19000000e+02	3.10272790e+06
6.20000000e+02	3.05617487e+06
6.21000000e+02	3.00979766e+06
6.22000000e+02	2.96359345e+06
6.23000000e+02	2.91756005e+06
6.24000000e+02	2.87169601e+06
6.25000000e+02	2.82599965e+06
6.26000000e+02	2.78047012e+06
6.27000000e+02	2.73510707e+06
6.28000000e+02	2.68990778e+06
6.29000000e+02	2.64487082e+06
6.30000000e+02	2.59999769e+06
6.31000000e+02	2.55528655e+06
6.32000000e+02	2.51073841e+06
6.33000000e+02	2.46635662e+06
6.34000000e+02	2.42213346e+06
6.35000000e+02	2.37807600e+06
6.36000000e+02	2.33419362e+06
6.37000000e+02	2.29046801e+06
6.38000000e+02	2.24692424e+06
6.39000000e+02	2.20354976e+06
6.40000000e+02	2.16032719e+06
6.41000000e+02	2.11733497e+06
6.42000000e+02	2.07447640e+06
6.43000000e+02	2.03181533e+06
6.44000000e+02	1.98936623e+06
6.45000000e+02	1.94710831e+06
6.46000000e+02	1.90499668e+06
6.47000000e+02	1.86316555e+06
6.48000000e+02	1.82148389e+06
6.49000000e+02	1.78004066e+06
6.50000000e+02	1.73882020e+06
6.51000000e+02	1.69779169e+06
6.52000000e+02	1.65705022e+06
6.53000000e+02	1.61646667e+06
6.54000000e+02	1.57620727e+06
6.55000000e+02	1.53611661e+06
6.56000000e+02	1.49634738e+06
6.57000000e+02	1.45675920e+06
6.58000000e+02	1.41750420e+06
6.59000000e+02	1.37844454e+06
