# Profil de FluxX au temps 7.000000000000077e-12 
# simu : /Volumes/MERCURE/JOBS/Zeq2_tanh_50mic_2p1e19_B0_20ps/GNU/FluxX@y-c.set
# col 0 : abscisse (um)
# col 1 : FluxX (W/cm2)
0.00000000e+00	0.00000000e+00
1.00000000e+00	6.09675338e+06
2.00000000e+00	1.21774370e+07
3.00000000e+00	1.83464614e+07
4.00000000e+00	2.44933771e+07
5.00000000e+00	3.06751510e+07
6.00000000e+00	3.69041354e+07
7.00000000e+00	4.31908251e+07
8.00000000e+00	4.95452915e+07
9.00000000e+00	5.59775480e+07
1.00000000e+01	6.24976933e+07
1.10000000e+01	6.91159542e+07
1.20000000e+01	7.58427035e+07
1.30000000e+01	8.26884770e+07
1.40000000e+01	8.96639868e+07
1.50000000e+01	9.67801389e+07
1.60000000e+01	1.04048048e+08
1.70000000e+01	1.11479054e+08
1.80000000e+01	1.19084738e+08
1.90000000e+01	1.26876941e+08
2.00000000e+01	1.34867779e+08
2.10000000e+01	1.43069660e+08
2.20000000e+01	1.51495305e+08
2.30000000e+01	1.60157760e+08
2.40000000e+01	1.69070424e+08
2.50000000e+01	1.78247058e+08
2.60000000e+01	1.87701810e+08
2.70000000e+01	1.97449235e+08
2.80000000e+01	2.07504309e+08
2.90000000e+01	2.17882460e+08
3.00000000e+01	2.28599580e+08
3.10000000e+01	2.39672052e+08
3.20000000e+01	2.51116768e+08
3.30000000e+01	2.62951156e+08
3.40000000e+01	2.75193202e+08
3.50000000e+01	2.87861473e+08
3.60000000e+01	3.00975142e+08
3.70000000e+01	3.14554013e+08
3.80000000e+01	3.28618547e+08
3.90000000e+01	3.43189888e+08
4.00000000e+01	3.58289890e+08
4.10000000e+01	3.73941143e+08
4.20000000e+01	3.90167003e+08
4.30000000e+01	4.06991620e+08
4.40000000e+01	4.24439969e+08
4.50000000e+01	4.42537882e+08
4.60000000e+01	4.61312079e+08
4.70000000e+01	4.80790201e+08
4.80000000e+01	5.01000851e+08
4.90000000e+01	5.21973620e+08
5.00000000e+01	5.43739130e+08
5.10000000e+01	5.66329066e+08
5.20000000e+01	5.89776217e+08
5.30000000e+01	6.14114511e+08
5.40000000e+01	6.39379055e+08
5.50000000e+01	6.65606173e+08
5.60000000e+01	6.92833444e+08
5.70000000e+01	7.21099748e+08
5.80000000e+01	7.50445304e+08
5.90000000e+01	7.80911714e+08
6.00000000e+01	8.12542014e+08
6.10000000e+01	8.45380712e+08
6.20000000e+01	8.79473845e+08
6.30000000e+01	9.14869024e+08
6.40000000e+01	9.51615486e+08
6.50000000e+01	9.89764145e+08
6.60000000e+01	1.02936765e+09
6.70000000e+01	1.07048043e+09
6.80000000e+01	1.11315875e+09
6.90000000e+01	1.15746080e+09
7.00000000e+01	1.20344669e+09
7.10000000e+01	1.25117857e+09
7.20000000e+01	1.30072065e+09
7.30000000e+01	1.35213930e+09
7.40000000e+01	1.40550306e+09
7.50000000e+01	1.46088274e+09
7.60000000e+01	1.51835151e+09
7.70000000e+01	1.57798491e+09
7.80000000e+01	1.63986095e+09
7.90000000e+01	1.70406017e+09
8.00000000e+01	1.77066574e+09
8.10000000e+01	1.83976349e+09
8.20000000e+01	1.91144202e+09
8.30000000e+01	1.98579275e+09
8.40000000e+01	2.06291001e+09
8.50000000e+01	2.14289111e+09
8.60000000e+01	2.22583645e+09
8.70000000e+01	2.31184956e+09
8.80000000e+01	2.40103719e+09
8.90000000e+01	2.49350944e+09
9.00000000e+01	2.58937977e+09
9.10000000e+01	2.68876516e+09
9.20000000e+01	2.79178614e+09
9.30000000e+01	2.89856691e+09
9.40000000e+01	3.00923543e+09
9.50000000e+01	3.12392348e+09
9.60000000e+01	3.24276681e+09
9.70000000e+01	3.36590516e+09
9.80000000e+01	3.49348242e+09
9.90000000e+01	3.62564667e+09
1.00000000e+02	3.76255031e+09
1.01000000e+02	3.90435014e+09
1.02000000e+02	4.05120748e+09
1.03000000e+02	4.20328821e+09
1.04000000e+02	4.36076294e+09
1.05000000e+02	4.52380706e+09
1.06000000e+02	4.69260083e+09
1.07000000e+02	4.86732953e+09
1.08000000e+02	5.04818350e+09
1.09000000e+02	5.23535828e+09
1.10000000e+02	5.42905468e+09
1.11000000e+02	5.62947889e+09
1.12000000e+02	5.83684257e+09
1.13000000e+02	6.05136297e+09
1.14000000e+02	6.27326300e+09
1.15000000e+02	6.50277133e+09
1.16000000e+02	6.74012249e+09
1.17000000e+02	6.98555697e+09
1.18000000e+02	7.23932130e+09
1.19000000e+02	7.50166816e+09
1.20000000e+02	7.77285645e+09
1.21000000e+02	8.05315137e+09
1.22000000e+02	8.34282457e+09
1.23000000e+02	8.64215415e+09
1.24000000e+02	8.95142480e+09
1.25000000e+02	9.27092787e+09
1.26000000e+02	9.60096143e+09
1.27000000e+02	9.94183040e+09
1.28000000e+02	1.02938465e+10
1.29000000e+02	1.06573286e+10
1.30000000e+02	1.10326024e+10
1.31000000e+02	1.14200007e+10
1.32000000e+02	1.18198636e+10
1.33000000e+02	1.22325384e+10
1.34000000e+02	1.26583795e+10
1.35000000e+02	1.30977488e+10
1.36000000e+02	1.35510155e+10
1.37000000e+02	1.40185562e+10
1.38000000e+02	1.45007551e+10
1.39000000e+02	1.49980037e+10
1.40000000e+02	1.55107011e+10
1.41000000e+02	1.60392540e+10
1.42000000e+02	1.65840765e+10
1.43000000e+02	1.71455905e+10
1.44000000e+02	1.77242253e+10
1.45000000e+02	1.83204180e+10
1.46000000e+02	1.89346131e+10
1.47000000e+02	1.95672627e+10
1.48000000e+02	2.02188266e+10
1.49000000e+02	2.08897720e+10
1.50000000e+02	2.15805738e+10
1.51000000e+02	2.22917142e+10
1.52000000e+02	2.30236830e+10
1.53000000e+02	2.37769774e+10
1.54000000e+02	2.45521017e+10
1.55000000e+02	2.53495678e+10
1.56000000e+02	2.61698946e+10
1.57000000e+02	2.70136084e+10
1.58000000e+02	2.78812422e+10
1.59000000e+02	2.87733362e+10
1.60000000e+02	2.96904374e+10
1.61000000e+02	3.06330995e+10
1.62000000e+02	3.16018829e+10
1.63000000e+02	3.25973545e+10
1.64000000e+02	3.36200876e+10
1.65000000e+02	3.46706616e+10
1.66000000e+02	3.57496620e+10
1.67000000e+02	3.68576804e+10
1.68000000e+02	3.79953139e+10
1.69000000e+02	3.91631654e+10
1.70000000e+02	4.03618430e+10
1.71000000e+02	4.15919601e+10
1.72000000e+02	4.28541351e+10
1.73000000e+02	4.41489910e+10
1.74000000e+02	4.54771556e+10
1.75000000e+02	4.68392608e+10
1.76000000e+02	4.82359427e+10
1.77000000e+02	4.96678412e+10
1.78000000e+02	5.11355999e+10
1.79000000e+02	5.26398656e+10
1.80000000e+02	5.41812880e+10
1.81000000e+02	5.57605198e+10
1.82000000e+02	5.73782161e+10
1.83000000e+02	5.90350342e+10
1.84000000e+02	6.07316331e+10
1.85000000e+02	6.24686735e+10
1.86000000e+02	6.42468173e+10
1.87000000e+02	6.60667274e+10
1.88000000e+02	6.79290670e+10
1.89000000e+02	6.98344998e+10
1.90000000e+02	7.17836893e+10
1.91000000e+02	7.37772983e+10
1.92000000e+02	7.58159891e+10
1.93000000e+02	7.79004225e+10
1.94000000e+02	8.00312577e+10
1.95000000e+02	8.22091522e+10
1.96000000e+02	8.44347608e+10
1.97000000e+02	8.67087357e+10
1.98000000e+02	8.90317259e+10
1.99000000e+02	9.14043769e+10
2.00000000e+02	9.38273302e+10
2.01000000e+02	9.63012228e+10
2.02000000e+02	9.88266870e+10
2.03000000e+02	1.01404350e+11
2.04000000e+02	1.04034833e+11
2.05000000e+02	1.06718752e+11
2.06000000e+02	1.09456715e+11
2.07000000e+02	1.12249324e+11
2.08000000e+02	1.15097174e+11
2.09000000e+02	1.18000852e+11
2.10000000e+02	1.20960936e+11
2.11000000e+02	1.23977996e+11
2.12000000e+02	1.27052594e+11
2.13000000e+02	1.30185280e+11
2.14000000e+02	1.33376596e+11
2.15000000e+02	1.36627073e+11
2.16000000e+02	1.39937230e+11
2.17000000e+02	1.43307578e+11
2.18000000e+02	1.46738613e+11
2.19000000e+02	1.50230820e+11
2.20000000e+02	1.53784672e+11
2.21000000e+02	1.57400629e+11
2.22000000e+02	1.61079137e+11
2.23000000e+02	1.64820628e+11
2.24000000e+02	1.68625522e+11
2.25000000e+02	1.72494221e+11
2.26000000e+02	1.76427115e+11
2.27000000e+02	1.80424577e+11
2.28000000e+02	1.84486966e+11
2.29000000e+02	1.88614622e+11
2.30000000e+02	1.92807870e+11
2.31000000e+02	1.97067020e+11
2.32000000e+02	2.01392362e+11
2.33000000e+02	2.05784170e+11
2.34000000e+02	2.10242698e+11
2.35000000e+02	2.14768185e+11
2.36000000e+02	2.19360850e+11
2.37000000e+02	2.24020891e+11
2.38000000e+02	2.28748490e+11
2.39000000e+02	2.33543808e+11
2.40000000e+02	2.38406986e+11
2.41000000e+02	2.43338146e+11
2.42000000e+02	2.48337388e+11
2.43000000e+02	2.53404792e+11
2.44000000e+02	2.58540419e+11
2.45000000e+02	2.63744307e+11
2.46000000e+02	2.69016473e+11
2.47000000e+02	2.74356911e+11
2.48000000e+02	2.79765598e+11
2.49000000e+02	2.85242483e+11
2.50000000e+02	2.90787497e+11
2.51000000e+02	2.96400547e+11
2.52000000e+02	3.02081520e+11
2.53000000e+02	3.07830276e+11
2.54000000e+02	3.13646656e+11
2.55000000e+02	3.19530476e+11
2.56000000e+02	3.25481532e+11
2.57000000e+02	3.31499593e+11
2.58000000e+02	3.37584407e+11
2.59000000e+02	3.43735699e+11
2.60000000e+02	3.49953171e+11
2.61000000e+02	3.56236500e+11
2.62000000e+02	3.62585341e+11
2.63000000e+02	3.68999325e+11
2.64000000e+02	3.75478059e+11
2.65000000e+02	3.82021129e+11
2.66000000e+02	3.88628095e+11
2.67000000e+02	3.95298495e+11
2.68000000e+02	4.02031843e+11
2.69000000e+02	4.08827630e+11
2.70000000e+02	4.15685324e+11
2.71000000e+02	4.22604368e+11
2.72000000e+02	4.29584186e+11
2.73000000e+02	4.36624174e+11
2.74000000e+02	4.43723709e+11
2.75000000e+02	4.50882143e+11
2.76000000e+02	4.58098807e+11
2.77000000e+02	4.65373007e+11
2.78000000e+02	4.72704028e+11
2.79000000e+02	4.80091134e+11
2.80000000e+02	4.87533565e+11
2.81000000e+02	4.95030539e+11
2.82000000e+02	5.02581254e+11
2.83000000e+02	5.10184886e+11
2.84000000e+02	5.17840587e+11
2.85000000e+02	5.25547492e+11
2.86000000e+02	5.33304712e+11
2.87000000e+02	5.41111338e+11
2.88000000e+02	5.48966440e+11
2.89000000e+02	5.56869070e+11
2.90000000e+02	5.64818258e+11
2.91000000e+02	5.72813015e+11
2.92000000e+02	5.80852331e+11
2.93000000e+02	5.88935178e+11
2.94000000e+02	5.97060511e+11
2.95000000e+02	6.05227262e+11
2.96000000e+02	6.13434348e+11
2.97000000e+02	6.21680667e+11
2.98000000e+02	6.29965098e+11
2.99000000e+02	6.38286504e+11
3.00000000e+02	6.46643731e+11
3.01000000e+02	6.55035606e+11
3.02000000e+02	6.63460941e+11
3.03000000e+02	6.71918532e+11
3.04000000e+02	6.80407159e+11
3.05000000e+02	6.88925584e+11
3.06000000e+02	6.97472558e+11
3.07000000e+02	7.06046812e+11
3.08000000e+02	7.14647068e+11
3.09000000e+02	7.23272028e+11
3.10000000e+02	7.31920384e+11
3.11000000e+02	7.40590814e+11
3.12000000e+02	7.49281980e+11
3.13000000e+02	7.57992535e+11
3.14000000e+02	7.66721117e+11
3.15000000e+02	7.75466351e+11
3.16000000e+02	7.84226853e+11
3.17000000e+02	7.93001225e+11
3.18000000e+02	8.01788059e+11
3.19000000e+02	8.10585937e+11
3.20000000e+02	8.19393429e+11
3.21000000e+02	8.28209096e+11
3.22000000e+02	8.37031489e+11
3.23000000e+02	8.45859150e+11
3.24000000e+02	8.54690611e+11
3.25000000e+02	8.63524397e+11
3.26000000e+02	8.72359024e+11
3.27000000e+02	8.81193000e+11
3.28000000e+02	8.90024827e+11
3.29000000e+02	8.98852998e+11
3.30000000e+02	9.07676000e+11
3.31000000e+02	9.16492314e+11
3.32000000e+02	9.25300415e+11
3.33000000e+02	9.34098773e+11
3.34000000e+02	9.42885852e+11
3.35000000e+02	9.51660111e+11
3.36000000e+02	9.60420006e+11
3.37000000e+02	9.69163988e+11
3.38000000e+02	9.77890504e+11
3.39000000e+02	9.86597999e+11
3.40000000e+02	9.95284915e+11
3.41000000e+02	1.00394969e+12
3.42000000e+02	1.01259076e+12
3.43000000e+02	1.02120657e+12
3.44000000e+02	1.02979554e+12
3.45000000e+02	1.03835611e+12
3.46000000e+02	1.04688672e+12
3.47000000e+02	1.05538579e+12
3.48000000e+02	1.06385177e+12
3.49000000e+02	1.07228308e+12
3.50000000e+02	1.08067816e+12
3.51000000e+02	1.08903545e+12
3.52000000e+02	1.09735339e+12
3.53000000e+02	1.10563042e+12
3.54000000e+02	1.11386499e+12
3.55000000e+02	1.12205555e+12
3.56000000e+02	1.13020054e+12
3.57000000e+02	1.13829843e+12
3.58000000e+02	1.14634768e+12
3.59000000e+02	1.15434676e+12
3.60000000e+02	1.16229414e+12
3.61000000e+02	1.17018830e+12
3.62000000e+02	1.17802772e+12
3.63000000e+02	1.18581090e+12
3.64000000e+02	1.19353635e+12
3.65000000e+02	1.20120257e+12
3.66000000e+02	1.20880807e+12
3.67000000e+02	1.21635140e+12
3.68000000e+02	1.22383108e+12
3.69000000e+02	1.23124566e+12
3.70000000e+02	1.23859370e+12
3.71000000e+02	1.24587378e+12
3.72000000e+02	1.25308447e+12
3.73000000e+02	1.26022436e+12
3.74000000e+02	1.26729207e+12
3.75000000e+02	1.27428622e+12
3.76000000e+02	1.28120544e+12
3.77000000e+02	1.28804837e+12
3.78000000e+02	1.29481369e+12
3.79000000e+02	1.30150007e+12
3.80000000e+02	1.30810621e+12
3.81000000e+02	1.31463082e+12
3.82000000e+02	1.32107263e+12
3.83000000e+02	1.32743039e+12
3.84000000e+02	1.33370287e+12
3.85000000e+02	1.33988885e+12
3.86000000e+02	1.34598713e+12
3.87000000e+02	1.35199653e+12
3.88000000e+02	1.35791592e+12
3.89000000e+02	1.36374413e+12
3.90000000e+02	1.36948007e+12
3.91000000e+02	1.37512264e+12
3.92000000e+02	1.38067077e+12
3.93000000e+02	1.38612341e+12
3.94000000e+02	1.39147954e+12
3.95000000e+02	1.39673815e+12
3.96000000e+02	1.40189826e+12
3.97000000e+02	1.40695893e+12
3.98000000e+02	1.41191921e+12
3.99000000e+02	1.41677820e+12
4.00000000e+02	1.42153501e+12
4.01000000e+02	1.42618880e+12
4.02000000e+02	1.43073871e+12
4.03000000e+02	1.43518395e+12
4.04000000e+02	1.43952372e+12
4.05000000e+02	1.44375727e+12
4.06000000e+02	1.44788385e+12
4.07000000e+02	1.45190276e+12
4.08000000e+02	1.45581329e+12
4.09000000e+02	1.45961478e+12
4.10000000e+02	1.46330660e+12
4.11000000e+02	1.46688810e+12
4.12000000e+02	1.47035870e+12
4.13000000e+02	1.47371782e+12
4.14000000e+02	1.47696489e+12
4.15000000e+02	1.48009937e+12
4.16000000e+02	1.48312075e+12
4.17000000e+02	1.48602852e+12
4.18000000e+02	1.48882219e+12
4.19000000e+02	1.49150130e+12
4.20000000e+02	1.49406538e+12
4.21000000e+02	1.49651401e+12
4.22000000e+02	1.49884675e+12
4.23000000e+02	1.50106318e+12
4.24000000e+02	1.50316289e+12
4.25000000e+02	1.50514550e+12
4.26000000e+02	1.50701060e+12
4.27000000e+02	1.50875780e+12
4.28000000e+02	1.51038674e+12
4.29000000e+02	1.51189704e+12
4.30000000e+02	1.51328831e+12
4.31000000e+02	1.51456018e+12
4.32000000e+02	1.51571227e+12
4.33000000e+02	1.51674421e+12
4.34000000e+02	1.51765561e+12
4.35000000e+02	1.51844609e+12
4.36000000e+02	1.51911524e+12
4.37000000e+02	1.51966266e+12
4.38000000e+02	1.52008795e+12
4.39000000e+02	1.52039068e+12
4.40000000e+02	1.52057042e+12
4.41000000e+02	1.52062671e+12
4.42000000e+02	1.52055910e+12
4.43000000e+02	1.52036713e+12
4.44000000e+02	1.52005029e+12
4.45000000e+02	1.51960810e+12
4.46000000e+02	1.51904002e+12
4.47000000e+02	1.51834554e+12
4.48000000e+02	1.51752409e+12
4.49000000e+02	1.51657511e+12
4.50000000e+02	1.51549803e+12
4.51000000e+02	1.51429224e+12
4.52000000e+02	1.51295713e+12
4.53000000e+02	1.51149208e+12
4.54000000e+02	1.50989644e+12
4.55000000e+02	1.50816955e+12
4.56000000e+02	1.50631074e+12
4.57000000e+02	1.50431934e+12
4.58000000e+02	1.50219464e+12
4.59000000e+02	1.49993595e+12
4.60000000e+02	1.49754254e+12
4.61000000e+02	1.49501370e+12
4.62000000e+02	1.49234870e+12
4.63000000e+02	1.48954679e+12
4.64000000e+02	1.48660725e+12
4.65000000e+02	1.48352932e+12
4.66000000e+02	1.48031227e+12
4.67000000e+02	1.47695534e+12
4.68000000e+02	1.47345780e+12
4.69000000e+02	1.46981891e+12
4.70000000e+02	1.46603792e+12
4.71000000e+02	1.46211413e+12
4.72000000e+02	1.45804679e+12
4.73000000e+02	1.45383521e+12
4.74000000e+02	1.44947868e+12
4.75000000e+02	1.44497653e+12
4.76000000e+02	1.44032808e+12
4.77000000e+02	1.43553268e+12
4.78000000e+02	1.43058971e+12
4.79000000e+02	1.42549855e+12
4.80000000e+02	1.42025863e+12
4.81000000e+02	1.41486939e+12
4.82000000e+02	1.40933031e+12
4.83000000e+02	1.40364089e+12
4.84000000e+02	1.39780067e+12
4.85000000e+02	1.39180925e+12
4.86000000e+02	1.38566624e+12
4.87000000e+02	1.37937133e+12
4.88000000e+02	1.37292423e+12
4.89000000e+02	1.36632472e+12
4.90000000e+02	1.35957264e+12
4.91000000e+02	1.35266789e+12
4.92000000e+02	1.34561044e+12
4.93000000e+02	1.33840034e+12
4.94000000e+02	1.33103769e+12
4.95000000e+02	1.32352272e+12
4.96000000e+02	1.31585572e+12
4.97000000e+02	1.30803708e+12
4.98000000e+02	1.30006729e+12
4.99000000e+02	1.29194696e+12
5.00000000e+02	1.28367680e+12
5.01000000e+02	1.27525764e+12
5.02000000e+02	1.26669044e+12
5.03000000e+02	1.25797629e+12
5.04000000e+02	1.24911640e+12
5.05000000e+02	1.24011212e+12
5.06000000e+02	1.23096495e+12
5.07000000e+02	1.22167652e+12
5.08000000e+02	1.21224860e+12
5.09000000e+02	1.20268311e+12
5.10000000e+02	1.19298210e+12
5.11000000e+02	1.18314777e+12
5.12000000e+02	1.17318246e+12
5.13000000e+02	1.16308861e+12
5.14000000e+02	1.15286882e+12
5.15000000e+02	1.14252578e+12
5.16000000e+02	1.13206231e+12
5.17000000e+02	1.12148130e+12
5.18000000e+02	1.11078576e+12
5.19000000e+02	1.09997876e+12
5.20000000e+02	1.08906344e+12
5.21000000e+02	1.07804297e+12
5.22000000e+02	1.06692059e+12
5.23000000e+02	1.05569956e+12
5.24000000e+02	1.04438314e+12
5.25000000e+02	1.03297460e+12
5.26000000e+02	1.02147720e+12
5.27000000e+02	1.00989417e+12
5.28000000e+02	9.98228732e+11
5.29000000e+02	9.86484039e+11
5.30000000e+02	9.74663211e+11
5.31000000e+02	9.62769310e+11
5.32000000e+02	9.50805339e+11
5.33000000e+02	9.38774236e+11
5.34000000e+02	9.26678875e+11
5.35000000e+02	9.14522065e+11
5.36000000e+02	9.02306547e+11
5.37000000e+02	8.90035004e+11
5.38000000e+02	8.77710058e+11
5.39000000e+02	8.65334279e+11
5.40000000e+02	8.52910193e+11
5.41000000e+02	8.40440287e+11
5.42000000e+02	8.27927019e+11
5.43000000e+02	8.15372829e+11
5.44000000e+02	8.02780152e+11
5.45000000e+02	7.90151423e+11
5.46000000e+02	7.77489100e+11
5.47000000e+02	7.64795667e+11
5.48000000e+02	7.52073653e+11
5.49000000e+02	7.39325645e+11
5.50000000e+02	7.26554301e+11
5.51000000e+02	7.13762365e+11
5.52000000e+02	7.00952679e+11
5.53000000e+02	6.88128199e+11
5.54000000e+02	6.75292006e+11
5.55000000e+02	6.62447318e+11
5.56000000e+02	6.49597505e+11
5.57000000e+02	6.36746100e+11
5.58000000e+02	6.23896804e+11
5.59000000e+02	6.11053502e+11
5.60000000e+02	5.98220268e+11
5.61000000e+02	5.85401373e+11
5.62000000e+02	5.72601290e+11
5.63000000e+02	5.59824699e+11
5.64000000e+02	5.47076490e+11
5.65000000e+02	5.34361763e+11
5.66000000e+02	5.21685830e+11
5.67000000e+02	5.09054212e+11
5.68000000e+02	4.96472632e+11
5.69000000e+02	4.83947014e+11
5.70000000e+02	4.71483473e+11
5.71000000e+02	4.59088306e+11
5.72000000e+02	4.46767979e+11
5.73000000e+02	4.34529117e+11
5.74000000e+02	4.22378483e+11
5.75000000e+02	4.10322968e+11
5.76000000e+02	3.98369564e+11
5.77000000e+02	3.86525349e+11
5.78000000e+02	3.74797463e+11
5.79000000e+02	3.63193081e+11
5.80000000e+02	3.51719389e+11
5.81000000e+02	3.40383556e+11
5.82000000e+02	3.29192708e+11
5.83000000e+02	3.18153895e+11
5.84000000e+02	3.07274062e+11
5.85000000e+02	2.96560018e+11
5.86000000e+02	2.86018408e+11
5.87000000e+02	2.75655673e+11
5.88000000e+02	2.65478029e+11
5.89000000e+02	2.55491429e+11
5.90000000e+02	2.45701535e+11
5.91000000e+02	2.36113690e+11
5.92000000e+02	2.26732889e+11
5.93000000e+02	2.17563753e+11
5.94000000e+02	2.08610506e+11
5.95000000e+02	1.99876950e+11
5.96000000e+02	1.91366449e+11
5.97000000e+02	1.83081910e+11
5.98000000e+02	1.75025768e+11
5.99000000e+02	1.67199976e+11
6.00000000e+02	1.59605998e+11
6.01000000e+02	1.52244802e+11
6.02000000e+02	1.45116859e+11
6.03000000e+02	1.38222149e+11
6.04000000e+02	1.31560157e+11
6.05000000e+02	1.25129890e+11
6.06000000e+02	1.18929886e+11
6.07000000e+02	1.12958229e+11
6.08000000e+02	1.07212560e+11
6.09000000e+02	1.01690104e+11
6.10000000e+02	9.63876921e+10
6.11000000e+02	9.13017856e+10
6.12000000e+02	8.64284909e+10
6.13000000e+02	8.17635953e+10
6.14000000e+02	7.73026152e+10
6.15000000e+02	7.30407689e+10
6.16000000e+02	6.89730808e+10
6.17000000e+02	6.50943522e+10
6.18000000e+02	6.13992202e+10
6.19000000e+02	5.78821746e+10
6.20000000e+02	5.45375932e+10
6.21000000e+02	5.13597684e+10
6.22000000e+02	4.83429324e+10
6.23000000e+02	4.54812847e+10
6.24000000e+02	4.27690158e+10
6.25000000e+02	4.02003298e+10
6.26000000e+02	3.77694655e+10
6.27000000e+02	3.54707154e+10
6.28000000e+02	3.32984467e+10
6.29000000e+02	3.12471141e+10
6.30000000e+02	2.93112751e+10
6.31000000e+02	2.74856016e+10
6.32000000e+02	2.57648935e+10
6.33000000e+02	2.41440880e+10
6.34000000e+02	2.26182648e+10
6.35000000e+02	2.11826533e+10
6.36000000e+02	1.98326407e+10
6.37000000e+02	1.85637731e+10
6.38000000e+02	1.73717576e+10
6.39000000e+02	1.62524655e+10
6.40000000e+02	1.52019332e+10
6.41000000e+02	1.42163596e+10
6.42000000e+02	1.32921062e+10
6.43000000e+02	1.24256965e+10
6.44000000e+02	1.16138111e+10
6.45000000e+02	1.08532861e+10
6.46000000e+02	1.01411097e+10
6.47000000e+02	9.47441749e+09
6.48000000e+02	8.85048874e+09
6.49000000e+02	8.26674232e+09
6.50000000e+02	7.72073108e+09
6.51000000e+02	7.21013792e+09
6.52000000e+02	6.73277074e+09
6.53000000e+02	6.28655689e+09
6.54000000e+02	5.86953916e+09
6.55000000e+02	5.47987006e+09
6.56000000e+02	5.11580715e+09
6.57000000e+02	4.77570845e+09
6.58000000e+02	4.45802725e+09
6.59000000e+02	4.16130780e+09
