# Profil de FluxX au temps 1.100000000000014e-11 
# simu : /Volumes/MERCURE/JOBS/Zeq2_tanh_50mic_2p1e19_B0_20ps/GNU/FluxX@y-c.set
# col 0 : abscisse (um)
# col 1 : FluxX (W/cm2)
0.00000000e+00	0.00000000e+00
1.00000000e+00	5.39889686e+08
2.00000000e+00	1.08004617e+09
3.00000000e+00	1.62085288e+09
4.00000000e+00	2.16248674e+09
5.00000000e+00	2.70528347e+09
6.00000000e+00	3.24953602e+09
7.00000000e+00	3.79554262e+09
8.00000000e+00	4.34358862e+09
9.00000000e+00	4.89397206e+09
1.00000000e+01	5.44698290e+09
1.10000000e+01	6.00291356e+09
1.20000000e+01	6.56205693e+09
1.30000000e+01	7.12470555e+09
1.40000000e+01	7.69115326e+09
1.50000000e+01	8.26169296e+09
1.60000000e+01	8.83661813e+09
1.70000000e+01	9.41622193e+09
1.80000000e+01	1.00007975e+10
1.90000000e+01	1.05906406e+10
2.00000000e+01	1.11860428e+10
2.10000000e+01	1.17873008e+10
2.20000000e+01	1.23947064e+10
2.30000000e+01	1.30085569e+10
2.40000000e+01	1.36291445e+10
2.50000000e+01	1.42567656e+10
2.60000000e+01	1.48917150e+10
2.70000000e+01	1.55342868e+10
2.80000000e+01	1.61847778e+10
2.90000000e+01	1.68434830e+10
3.00000000e+01	1.75106976e+10
3.10000000e+01	1.81867176e+10
3.20000000e+01	1.88718394e+10
3.30000000e+01	1.95663589e+10
3.40000000e+01	2.02705716e+10
3.50000000e+01	2.09847748e+10
3.60000000e+01	2.17092647e+10
3.70000000e+01	2.24443376e+10
3.80000000e+01	2.31902897e+10
3.90000000e+01	2.39474185e+10
4.00000000e+01	2.47160205e+10
4.10000000e+01	2.54963924e+10
4.20000000e+01	2.62888306e+10
4.30000000e+01	2.70936320e+10
4.40000000e+01	2.79110939e+10
4.50000000e+01	2.87415124e+10
4.60000000e+01	2.95851843e+10
4.70000000e+01	3.04424056e+10
4.80000000e+01	3.13134731e+10
4.90000000e+01	3.21986830e+10
5.00000000e+01	3.30983311e+10
5.10000000e+01	3.40127132e+10
5.20000000e+01	3.49421246e+10
5.30000000e+01	3.58868602e+10
5.40000000e+01	3.68472155e+10
5.50000000e+01	3.78234845e+10
5.60000000e+01	3.88159614e+10
5.70000000e+01	3.98249396e+10
5.80000000e+01	4.08507122e+10
5.90000000e+01	4.18935717e+10
6.00000000e+01	4.29538098e+10
6.10000000e+01	4.40317183e+10
6.20000000e+01	4.51275874e+10
6.30000000e+01	4.62417071e+10
6.40000000e+01	4.73743665e+10
6.50000000e+01	4.85258538e+10
6.60000000e+01	4.96964564e+10
6.70000000e+01	5.08864606e+10
6.80000000e+01	5.20961519e+10
6.90000000e+01	5.33258144e+10
7.00000000e+01	5.45757317e+10
7.10000000e+01	5.58461858e+10
7.20000000e+01	5.71374576e+10
7.30000000e+01	5.84498265e+10
7.40000000e+01	5.97835708e+10
7.50000000e+01	6.11389673e+10
7.60000000e+01	6.25162913e+10
7.70000000e+01	6.39158166e+10
7.80000000e+01	6.53378155e+10
7.90000000e+01	6.67825584e+10
8.00000000e+01	6.82503141e+10
8.10000000e+01	6.97413497e+10
8.20000000e+01	7.12559307e+10
8.30000000e+01	7.27943228e+10
8.40000000e+01	7.43567868e+10
8.50000000e+01	7.59435811e+10
8.60000000e+01	7.75549626e+10
8.70000000e+01	7.91911855e+10
8.80000000e+01	8.08525021e+10
8.90000000e+01	8.25391621e+10
9.00000000e+01	8.42514130e+10
9.10000000e+01	8.59894995e+10
9.20000000e+01	8.77536641e+10
9.30000000e+01	8.95441464e+10
9.40000000e+01	9.13611835e+10
9.50000000e+01	9.32050095e+10
9.60000000e+01	9.50758557e+10
9.70000000e+01	9.69739505e+10
9.80000000e+01	9.88995192e+10
9.90000000e+01	1.00852784e+11
1.00000000e+02	1.02833964e+11
1.01000000e+02	1.04843276e+11
1.02000000e+02	1.06880931e+11
1.03000000e+02	1.08947138e+11
1.04000000e+02	1.11042104e+11
1.05000000e+02	1.13166031e+11
1.06000000e+02	1.15319116e+11
1.07000000e+02	1.17501555e+11
1.08000000e+02	1.19713538e+11
1.09000000e+02	1.21955253e+11
1.10000000e+02	1.24226884e+11
1.11000000e+02	1.26528608e+11
1.12000000e+02	1.28860602e+11
1.13000000e+02	1.31223037e+11
1.14000000e+02	1.33616083e+11
1.15000000e+02	1.36039907e+11
1.16000000e+02	1.38494663e+11
1.17000000e+02	1.40980506e+11
1.18000000e+02	1.43497582e+11
1.19000000e+02	1.46046037e+11
1.20000000e+02	1.48626010e+11
1.21000000e+02	1.51237636e+11
1.22000000e+02	1.53881047e+11
1.23000000e+02	1.56556367e+11
1.24000000e+02	1.59263719e+11
1.25000000e+02	1.62003219e+11
1.26000000e+02	1.64774978e+11
1.27000000e+02	1.67579103e+11
1.28000000e+02	1.70415695e+11
1.29000000e+02	1.73284851e+11
1.30000000e+02	1.76186662e+11
1.31000000e+02	1.79121215e+11
1.32000000e+02	1.82088589e+11
1.33000000e+02	1.85088860e+11
1.34000000e+02	1.88122099e+11
1.35000000e+02	1.91188370e+11
1.36000000e+02	1.94287733e+11
1.37000000e+02	1.97420241e+11
1.38000000e+02	2.00585943e+11
1.39000000e+02	2.03784881e+11
1.40000000e+02	2.07017093e+11
1.41000000e+02	2.10282610e+11
1.42000000e+02	2.13581457e+11
1.43000000e+02	2.16913656e+11
1.44000000e+02	2.20279220e+11
1.45000000e+02	2.23678158e+11
1.46000000e+02	2.27110472e+11
1.47000000e+02	2.30576161e+11
1.48000000e+02	2.34075214e+11
1.49000000e+02	2.37607618e+11
1.50000000e+02	2.41173351e+11
1.51000000e+02	2.44772388e+11
1.52000000e+02	2.48404695e+11
1.53000000e+02	2.52070234e+11
1.54000000e+02	2.55768962e+11
1.55000000e+02	2.59500827e+11
1.56000000e+02	2.63265774e+11
1.57000000e+02	2.67063739e+11
1.58000000e+02	2.70894656e+11
1.59000000e+02	2.74758449e+11
1.60000000e+02	2.78655039e+11
1.61000000e+02	2.82584338e+11
1.62000000e+02	2.86546255e+11
1.63000000e+02	2.90540691e+11
1.64000000e+02	2.94567542e+11
1.65000000e+02	2.98626697e+11
1.66000000e+02	3.02718041e+11
1.67000000e+02	3.06841450e+11
1.68000000e+02	3.10996797e+11
1.69000000e+02	3.15183946e+11
1.70000000e+02	3.19402758e+11
1.71000000e+02	3.23653086e+11
1.72000000e+02	3.27934779e+11
1.73000000e+02	3.32247677e+11
1.74000000e+02	3.36591617e+11
1.75000000e+02	3.40966428e+11
1.76000000e+02	3.45371936e+11
1.77000000e+02	3.49807957e+11
1.78000000e+02	3.54274305e+11
1.79000000e+02	3.58770787e+11
1.80000000e+02	3.63297202e+11
1.81000000e+02	3.67853347e+11
1.82000000e+02	3.72439010e+11
1.83000000e+02	3.77053976e+11
1.84000000e+02	3.81698022e+11
1.85000000e+02	3.86370920e+11
1.86000000e+02	3.91072438e+11
1.87000000e+02	3.95802336e+11
1.88000000e+02	4.00560370e+11
1.89000000e+02	4.05346291e+11
1.90000000e+02	4.10159842e+11
1.91000000e+02	4.15000764e+11
1.92000000e+02	4.19868791e+11
1.93000000e+02	4.24763650e+11
1.94000000e+02	4.29685065e+11
1.95000000e+02	4.34632753e+11
1.96000000e+02	4.39606429e+11
1.97000000e+02	4.44605799e+11
1.98000000e+02	4.49630566e+11
1.99000000e+02	4.54680427e+11
2.00000000e+02	4.59755074e+11
2.01000000e+02	4.64854196e+11
2.02000000e+02	4.69977474e+11
2.03000000e+02	4.75124585e+11
2.04000000e+02	4.80295204e+11
2.05000000e+02	4.85488996e+11
2.06000000e+02	4.90705627e+11
2.07000000e+02	4.95944753e+11
2.08000000e+02	5.01206030e+11
2.09000000e+02	5.06489106e+11
2.10000000e+02	5.11793626e+11
2.11000000e+02	5.17119231e+11
2.12000000e+02	5.22465555e+11
2.13000000e+02	5.27832231e+11
2.14000000e+02	5.33218887e+11
2.15000000e+02	5.38625144e+11
2.16000000e+02	5.44050621e+11
2.17000000e+02	5.49494934e+11
2.18000000e+02	5.54957693e+11
2.19000000e+02	5.60438504e+11
2.20000000e+02	5.65936969e+11
2.21000000e+02	5.71452688e+11
2.22000000e+02	5.76985256e+11
2.23000000e+02	5.82534262e+11
2.24000000e+02	5.88099295e+11
2.25000000e+02	5.93679938e+11
2.26000000e+02	5.99275771e+11
2.27000000e+02	6.04886371e+11
2.28000000e+02	6.10511310e+11
2.29000000e+02	6.16150159e+11
2.30000000e+02	6.21802482e+11
2.31000000e+02	6.27467844e+11
2.32000000e+02	6.33145803e+11
2.33000000e+02	6.38835917e+11
2.34000000e+02	6.44537738e+11
2.35000000e+02	6.50250816e+11
2.36000000e+02	6.55974700e+11
2.37000000e+02	6.61708933e+11
2.38000000e+02	6.67453057e+11
2.39000000e+02	6.73206610e+11
2.40000000e+02	6.78969128e+11
2.41000000e+02	6.84740145e+11
2.42000000e+02	6.90519191e+11
2.43000000e+02	6.96305794e+11
2.44000000e+02	7.02099479e+11
2.45000000e+02	7.07899771e+11
2.46000000e+02	7.13706188e+11
2.47000000e+02	7.19518251e+11
2.48000000e+02	7.25335475e+11
2.49000000e+02	7.31157374e+11
2.50000000e+02	7.36983459e+11
2.51000000e+02	7.42813242e+11
2.52000000e+02	7.48646229e+11
2.53000000e+02	7.54481926e+11
2.54000000e+02	7.60319838e+11
2.55000000e+02	7.66159467e+11
2.56000000e+02	7.72000313e+11
2.57000000e+02	7.77841876e+11
2.58000000e+02	7.83683652e+11
2.59000000e+02	7.89525138e+11
2.60000000e+02	7.95365827e+11
2.61000000e+02	8.01205212e+11
2.62000000e+02	8.07042786e+11
2.63000000e+02	8.12878038e+11
2.64000000e+02	8.18710457e+11
2.65000000e+02	8.24539532e+11
2.66000000e+02	8.30364748e+11
2.67000000e+02	8.36185593e+11
2.68000000e+02	8.42001551e+11
2.69000000e+02	8.47812107e+11
2.70000000e+02	8.53616742e+11
2.71000000e+02	8.59414941e+11
2.72000000e+02	8.65206185e+11
2.73000000e+02	8.70989956e+11
2.74000000e+02	8.76765733e+11
2.75000000e+02	8.82532999e+11
2.76000000e+02	8.88291232e+11
2.77000000e+02	8.94039913e+11
2.78000000e+02	8.99778520e+11
2.79000000e+02	9.05506535e+11
2.80000000e+02	9.11223435e+11
2.81000000e+02	9.16928701e+11
2.82000000e+02	9.22621811e+11
2.83000000e+02	9.28302246e+11
2.84000000e+02	9.33969485e+11
2.85000000e+02	9.39623009e+11
2.86000000e+02	9.45262298e+11
2.87000000e+02	9.50886833e+11
2.88000000e+02	9.56496097e+11
2.89000000e+02	9.62089570e+11
2.90000000e+02	9.67666737e+11
2.91000000e+02	9.73227082e+11
2.92000000e+02	9.78770089e+11
2.93000000e+02	9.84295244e+11
2.94000000e+02	9.89802034e+11
2.95000000e+02	9.95289948e+11
2.96000000e+02	1.00075847e+12
2.97000000e+02	1.00620710e+12
2.98000000e+02	1.01163533e+12
2.99000000e+02	1.01704265e+12
3.00000000e+02	1.02242855e+12
3.01000000e+02	1.02779253e+12
3.02000000e+02	1.03313410e+12
3.03000000e+02	1.03845275e+12
3.04000000e+02	1.04374799e+12
3.05000000e+02	1.04901932e+12
3.06000000e+02	1.05426625e+12
3.07000000e+02	1.05948830e+12
3.08000000e+02	1.06468496e+12
3.09000000e+02	1.06985577e+12
3.10000000e+02	1.07500024e+12
3.11000000e+02	1.08011788e+12
3.12000000e+02	1.08520823e+12
3.13000000e+02	1.09027082e+12
3.14000000e+02	1.09530516e+12
3.15000000e+02	1.10031081e+12
3.16000000e+02	1.10528729e+12
3.17000000e+02	1.11023415e+12
3.18000000e+02	1.11515093e+12
3.19000000e+02	1.12003718e+12
3.20000000e+02	1.12489246e+12
3.21000000e+02	1.12971633e+12
3.22000000e+02	1.13450835e+12
3.23000000e+02	1.13926808e+12
3.24000000e+02	1.14399510e+12
3.25000000e+02	1.14868898e+12
3.26000000e+02	1.15334931e+12
3.27000000e+02	1.15797568e+12
3.28000000e+02	1.16256767e+12
3.29000000e+02	1.16712489e+12
3.30000000e+02	1.17164693e+12
3.31000000e+02	1.17613342e+12
3.32000000e+02	1.18058397e+12
3.33000000e+02	1.18499819e+12
3.34000000e+02	1.18937572e+12
3.35000000e+02	1.19371620e+12
3.36000000e+02	1.19801926e+12
3.37000000e+02	1.20228456e+12
3.38000000e+02	1.20651174e+12
3.39000000e+02	1.21070049e+12
3.40000000e+02	1.21485046e+12
3.41000000e+02	1.21896134e+12
3.42000000e+02	1.22303281e+12
3.43000000e+02	1.22706458e+12
3.44000000e+02	1.23105633e+12
3.45000000e+02	1.23500779e+12
3.46000000e+02	1.23891866e+12
3.47000000e+02	1.24278870e+12
3.48000000e+02	1.24661762e+12
3.49000000e+02	1.25040517e+12
3.50000000e+02	1.25415112e+12
3.51000000e+02	1.25785522e+12
3.52000000e+02	1.26151726e+12
3.53000000e+02	1.26513700e+12
3.54000000e+02	1.26871426e+12
3.55000000e+02	1.27224882e+12
3.56000000e+02	1.27574051e+12
3.57000000e+02	1.27918914e+12
3.58000000e+02	1.28259455e+12
3.59000000e+02	1.28595658e+12
3.60000000e+02	1.28927509e+12
3.61000000e+02	1.29254992e+12
3.62000000e+02	1.29578097e+12
3.63000000e+02	1.29896810e+12
3.64000000e+02	1.30211122e+12
3.65000000e+02	1.30521023e+12
3.66000000e+02	1.30826503e+12
3.67000000e+02	1.31127556e+12
3.68000000e+02	1.31424174e+12
3.69000000e+02	1.31716351e+12
3.70000000e+02	1.32004084e+12
3.71000000e+02	1.32287367e+12
3.72000000e+02	1.32566198e+12
3.73000000e+02	1.32840575e+12
3.74000000e+02	1.33110496e+12
3.75000000e+02	1.33375962e+12
3.76000000e+02	1.33636972e+12
3.77000000e+02	1.33893528e+12
3.78000000e+02	1.34145632e+12
3.79000000e+02	1.34393287e+12
3.80000000e+02	1.34636496e+12
3.81000000e+02	1.34875263e+12
3.82000000e+02	1.35109592e+12
3.83000000e+02	1.35339490e+12
3.84000000e+02	1.35564961e+12
3.85000000e+02	1.35786011e+12
3.86000000e+02	1.36002648e+12
3.87000000e+02	1.36214878e+12
3.88000000e+02	1.36422707e+12
3.89000000e+02	1.36626144e+12
3.90000000e+02	1.36825196e+12
3.91000000e+02	1.37019870e+12
3.92000000e+02	1.37210173e+12
3.93000000e+02	1.37396114e+12
3.94000000e+02	1.37577699e+12
3.95000000e+02	1.37754936e+12
3.96000000e+02	1.37927831e+12
3.97000000e+02	1.38096390e+12
3.98000000e+02	1.38260620e+12
3.99000000e+02	1.38420526e+12
4.00000000e+02	1.38576113e+12
4.01000000e+02	1.38727385e+12
4.02000000e+02	1.38874345e+12
4.03000000e+02	1.39016996e+12
4.04000000e+02	1.39155339e+12
4.05000000e+02	1.39289375e+12
4.06000000e+02	1.39419104e+12
4.07000000e+02	1.39544524e+12
4.08000000e+02	1.39665631e+12
4.09000000e+02	1.39782423e+12
4.10000000e+02	1.39894893e+12
4.11000000e+02	1.40003035e+12
4.12000000e+02	1.40106841e+12
4.13000000e+02	1.40206299e+12
4.14000000e+02	1.40301400e+12
4.15000000e+02	1.40392130e+12
4.16000000e+02	1.40478474e+12
4.17000000e+02	1.40560415e+12
4.18000000e+02	1.40637936e+12
4.19000000e+02	1.40711017e+12
4.20000000e+02	1.40779635e+12
4.21000000e+02	1.40843768e+12
4.22000000e+02	1.40903389e+12
4.23000000e+02	1.40958472e+12
4.24000000e+02	1.41008987e+12
4.25000000e+02	1.41054903e+12
4.26000000e+02	1.41096189e+12
4.27000000e+02	1.41132808e+12
4.28000000e+02	1.41164725e+12
4.29000000e+02	1.41191901e+12
4.30000000e+02	1.41214297e+12
4.31000000e+02	1.41231871e+12
4.32000000e+02	1.41244579e+12
4.33000000e+02	1.41252378e+12
4.34000000e+02	1.41255220e+12
4.35000000e+02	1.41253057e+12
4.36000000e+02	1.41245840e+12
4.37000000e+02	1.41233519e+12
4.38000000e+02	1.41216041e+12
4.39000000e+02	1.41193353e+12
4.40000000e+02	1.41165400e+12
4.41000000e+02	1.41132128e+12
4.42000000e+02	1.41093480e+12
4.43000000e+02	1.41049397e+12
4.44000000e+02	1.40999824e+12
4.45000000e+02	1.40944699e+12
4.46000000e+02	1.40883965e+12
4.47000000e+02	1.40817561e+12
4.48000000e+02	1.40745427e+12
4.49000000e+02	1.40667503e+12
4.50000000e+02	1.40583727e+12
4.51000000e+02	1.40494040e+12
4.52000000e+02	1.40398379e+12
4.53000000e+02	1.40296686e+12
4.54000000e+02	1.40188899e+12
4.55000000e+02	1.40074958e+12
4.56000000e+02	1.39954804e+12
4.57000000e+02	1.39828379e+12
4.58000000e+02	1.39695624e+12
4.59000000e+02	1.39556481e+12
4.60000000e+02	1.39410895e+12
4.61000000e+02	1.39258809e+12
4.62000000e+02	1.39100169e+12
4.63000000e+02	1.38934923e+12
4.64000000e+02	1.38763018e+12
4.65000000e+02	1.38584403e+12
4.66000000e+02	1.38399030e+12
4.67000000e+02	1.38206851e+12
4.68000000e+02	1.38007821e+12
4.69000000e+02	1.37801894e+12
4.70000000e+02	1.37589029e+12
4.71000000e+02	1.37369185e+12
4.72000000e+02	1.37142324e+12
4.73000000e+02	1.36908409e+12
4.74000000e+02	1.36667404e+12
4.75000000e+02	1.36419279e+12
4.76000000e+02	1.36164001e+12
4.77000000e+02	1.35901544e+12
4.78000000e+02	1.35631881e+12
4.79000000e+02	1.35354988e+12
4.80000000e+02	1.35070844e+12
4.81000000e+02	1.34779430e+12
4.82000000e+02	1.34480729e+12
4.83000000e+02	1.34174727e+12
4.84000000e+02	1.33861413e+12
4.85000000e+02	1.33540776e+12
4.86000000e+02	1.33212811e+12
4.87000000e+02	1.32877512e+12
4.88000000e+02	1.32534879e+12
4.89000000e+02	1.32184912e+12
4.90000000e+02	1.31827615e+12
4.91000000e+02	1.31462994e+12
4.92000000e+02	1.31091058e+12
4.93000000e+02	1.30711820e+12
4.94000000e+02	1.30325293e+12
4.95000000e+02	1.29931496e+12
4.96000000e+02	1.29530448e+12
4.97000000e+02	1.29122174e+12
4.98000000e+02	1.28706700e+12
4.99000000e+02	1.28284057e+12
5.00000000e+02	1.27854276e+12
5.01000000e+02	1.27417394e+12
5.02000000e+02	1.26973452e+12
5.03000000e+02	1.26522493e+12
5.04000000e+02	1.26064562e+12
5.05000000e+02	1.25599712e+12
5.06000000e+02	1.25127996e+12
5.07000000e+02	1.24649473e+12
5.08000000e+02	1.24164206e+12
5.09000000e+02	1.23672260e+12
5.10000000e+02	1.23173707e+12
5.11000000e+02	1.22668622e+12
5.12000000e+02	1.22157085e+12
5.13000000e+02	1.21639179e+12
5.14000000e+02	1.21114995e+12
5.15000000e+02	1.20584626e+12
5.16000000e+02	1.20048169e+12
5.17000000e+02	1.19505730e+12
5.18000000e+02	1.18957416e+12
5.19000000e+02	1.18403340e+12
5.20000000e+02	1.17843622e+12
5.21000000e+02	1.17278384e+12
5.22000000e+02	1.16707755e+12
5.23000000e+02	1.16131868e+12
5.24000000e+02	1.15550862e+12
5.25000000e+02	1.14964879e+12
5.26000000e+02	1.14374066e+12
5.27000000e+02	1.13778575e+12
5.28000000e+02	1.13178563e+12
5.29000000e+02	1.12574189e+12
5.30000000e+02	1.11965617e+12
5.31000000e+02	1.11353014e+12
5.32000000e+02	1.10736551e+12
5.33000000e+02	1.10116399e+12
5.34000000e+02	1.09492734e+12
5.35000000e+02	1.08865733e+12
5.36000000e+02	1.08235575e+12
5.37000000e+02	1.07602438e+12
5.38000000e+02	1.06966502e+12
5.39000000e+02	1.06327946e+12
5.40000000e+02	1.05686950e+12
5.41000000e+02	1.05043692e+12
5.42000000e+02	1.04398346e+12
5.43000000e+02	1.03751088e+12
5.44000000e+02	1.03102086e+12
5.45000000e+02	1.02451510e+12
5.46000000e+02	1.01799522e+12
5.47000000e+02	1.01146280e+12
5.48000000e+02	1.00491940e+12
5.49000000e+02	9.98366495e+11
5.50000000e+02	9.91805514e+11
5.51000000e+02	9.85237821e+11
5.52000000e+02	9.78664715e+11
5.53000000e+02	9.72087426e+11
5.54000000e+02	9.65507110e+11
5.55000000e+02	9.58924850e+11
5.56000000e+02	9.52341651e+11
5.57000000e+02	9.45758440e+11
5.58000000e+02	9.39176064e+11
5.59000000e+02	9.32595290e+11
5.60000000e+02	9.26016805e+11
5.61000000e+02	9.19441213e+11
5.62000000e+02	9.12869039e+11
5.63000000e+02	9.06300730e+11
5.64000000e+02	8.99736651e+11
5.65000000e+02	8.93177091e+11
5.66000000e+02	8.86622263e+11
5.67000000e+02	8.80072307e+11
5.68000000e+02	8.73527290e+11
5.69000000e+02	8.66987209e+11
5.70000000e+02	8.60451993e+11
5.71000000e+02	8.53921507e+11
5.72000000e+02	8.47395554e+11
5.73000000e+02	8.40873877e+11
5.74000000e+02	8.34356161e+11
5.75000000e+02	8.27842040e+11
5.76000000e+02	8.21331094e+11
5.77000000e+02	8.14822856e+11
5.78000000e+02	8.08316816e+11
5.79000000e+02	8.01812421e+11
5.80000000e+02	7.95309080e+11
5.81000000e+02	7.88806164e+11
5.82000000e+02	7.82303015e+11
5.83000000e+02	7.75798946e+11
5.84000000e+02	7.69293241e+11
5.85000000e+02	7.62785165e+11
5.86000000e+02	7.56273961e+11
5.87000000e+02	7.49758858e+11
5.88000000e+02	7.43239071e+11
5.89000000e+02	7.36713807e+11
5.90000000e+02	7.30182265e+11
5.91000000e+02	7.23643643e+11
5.92000000e+02	7.17097139e+11
5.93000000e+02	7.10541955e+11
5.94000000e+02	7.03977300e+11
5.95000000e+02	6.97402394e+11
5.96000000e+02	6.90816470e+11
5.97000000e+02	6.84218779e+11
5.98000000e+02	6.77608591e+11
5.99000000e+02	6.70985200e+11
6.00000000e+02	6.64347928e+11
6.01000000e+02	6.57696124e+11
6.02000000e+02	6.51029175e+11
6.03000000e+02	6.44346500e+11
6.04000000e+02	6.37647560e+11
6.05000000e+02	6.30931855e+11
6.06000000e+02	6.24198932e+11
6.07000000e+02	6.17448386e+11
6.08000000e+02	6.10679859e+11
6.09000000e+02	6.03893048e+11
6.10000000e+02	5.97087702e+11
6.11000000e+02	5.90263628e+11
6.12000000e+02	5.83420695e+11
6.13000000e+02	5.76558831e+11
6.14000000e+02	5.69678028e+11
6.15000000e+02	5.62778343e+11
6.16000000e+02	5.55859895e+11
6.17000000e+02	5.48922867e+11
6.18000000e+02	5.41967514e+11
6.19000000e+02	5.34994159e+11
6.20000000e+02	5.28003196e+11
6.21000000e+02	5.20995092e+11
6.22000000e+02	5.13970376e+11
6.23000000e+02	5.06929645e+11
6.24000000e+02	4.99873563e+11
6.25000000e+02	4.92802864e+11
6.26000000e+02	4.85718352e+11
6.27000000e+02	4.78620902e+11
6.28000000e+02	4.71511452e+11
6.29000000e+02	4.64390986e+11
6.30000000e+02	4.57260559e+11
6.31000000e+02	4.50121290e+11
6.32000000e+02	4.42974337e+11
6.33000000e+02	4.35820942e+11
6.34000000e+02	4.28662373e+11
6.35000000e+02	4.21499903e+11
6.36000000e+02	4.14334961e+11
6.37000000e+02	4.07168929e+11
6.38000000e+02	4.00003202e+11
6.39000000e+02	3.92839379e+11
6.40000000e+02	3.85678730e+11
6.41000000e+02	3.78523057e+11
6.42000000e+02	3.71373545e+11
6.43000000e+02	3.64231886e+11
6.44000000e+02	3.57099711e+11
6.45000000e+02	3.49978599e+11
6.46000000e+02	3.42869927e+11
6.47000000e+02	3.35775388e+11
6.48000000e+02	3.28696560e+11
6.49000000e+02	3.21634708e+11
6.50000000e+02	3.14591696e+11
6.51000000e+02	3.07568555e+11
6.52000000e+02	3.00567143e+11
6.53000000e+02	2.93588448e+11
6.54000000e+02	2.86634162e+11
6.55000000e+02	2.79705275e+11
6.56000000e+02	2.72803265e+11
6.57000000e+02	2.65929104e+11
6.58000000e+02	2.59084100e+11
6.59000000e+02	2.52269102e+11
