# Profil de FluxX au temps 4.000000000000029e-12 
# simu : /Volumes/MERCURE/JOBS/Zeq2_tanh_50mic_2p1e19_B0_20ps/GNU/FluxX@y-c.set
# col 0 : abscisse (um)
# col 1 : FluxX (W/cm2)
0.00000000e+00	0.00000000e+00
1.00000000e+00	1.72162185e+05
2.00000000e+00	3.18625766e+05
3.00000000e+00	5.34814686e+05
4.00000000e+00	7.00882695e+05
5.00000000e+00	8.64362285e+05
6.00000000e+00	1.02817734e+06
7.00000000e+00	1.19325651e+06
8.00000000e+00	1.36011752e+06
9.00000000e+00	1.52906719e+06
1.00000000e+01	1.70032225e+06
1.10000000e+01	1.87420942e+06
1.20000000e+01	2.05111971e+06
1.30000000e+01	2.23137717e+06
1.40000000e+01	2.41509089e+06
1.50000000e+01	2.60226790e+06
1.60000000e+01	2.79316555e+06
1.70000000e+01	2.98831929e+06
1.80000000e+01	3.18820484e+06
1.90000000e+01	3.39306030e+06
2.00000000e+01	3.60304861e+06
2.10000000e+01	3.81846418e+06
2.20000000e+01	4.03975753e+06
2.30000000e+01	4.26743255e+06
2.40000000e+01	4.50195623e+06
2.50000000e+01	4.74373640e+06
2.60000000e+01	4.99314542e+06
2.70000000e+01	5.25054909e+06
2.80000000e+01	5.51632472e+06
2.90000000e+01	5.79086712e+06
3.00000000e+01	6.07458838e+06
3.10000000e+01	6.36791511e+06
3.20000000e+01	6.67128695e+06
3.30000000e+01	6.98515705e+06
3.40000000e+01	7.30999423e+06
3.50000000e+01	7.64628730e+06
3.60000000e+01	7.99455025e+06
3.70000000e+01	8.35532671e+06
3.80000000e+01	8.72919247e+06
3.90000000e+01	9.11675735e+06
4.00000000e+01	9.51866525e+06
4.10000000e+01	9.93559422e+06
4.20000000e+01	1.03682546e+07
4.30000000e+01	1.08173872e+07
4.40000000e+01	1.12837598e+07
4.50000000e+01	1.17681636e+07
4.60000000e+01	1.22714098e+07
4.70000000e+01	1.27943285e+07
4.80000000e+01	1.33377692e+07
4.90000000e+01	1.39026035e+07
5.00000000e+01	1.44897285e+07
5.10000000e+01	1.51000711e+07
5.20000000e+01	1.57345932e+07
5.30000000e+01	1.63942942e+07
5.40000000e+01	1.70802147e+07
5.50000000e+01	1.77934393e+07
5.60000000e+01	1.85350978e+07
5.70000000e+01	1.93063679e+07
5.80000000e+01	2.01084762e+07
5.90000000e+01	2.09427001e+07
6.00000000e+01	2.18103696e+07
6.10000000e+01	2.27128690e+07
6.20000000e+01	2.36516390e+07
6.30000000e+01	2.46281789e+07
6.40000000e+01	2.56440493e+07
6.50000000e+01	2.67008740e+07
6.60000000e+01	2.78003425e+07
6.70000000e+01	2.89442136e+07
6.80000000e+01	3.01343171e+07
6.90000000e+01	3.13725585e+07
7.00000000e+01	3.26609213e+07
7.10000000e+01	3.40014715e+07
7.20000000e+01	3.53963609e+07
7.30000000e+01	3.68478311e+07
7.40000000e+01	3.83582169e+07
7.50000000e+01	3.99299495e+07
7.60000000e+01	4.15655605e+07
7.70000000e+01	4.32676833e+07
7.80000000e+01	4.50390579e+07
7.90000000e+01	4.68825324e+07
8.00000000e+01	4.88010677e+07
8.10000000e+01	5.07977396e+07
8.20000000e+01	5.28757444e+07
8.30000000e+01	5.50384023e+07
8.40000000e+01	5.72891635e+07
8.50000000e+01	5.96316143e+07
8.60000000e+01	6.20694831e+07
8.70000000e+01	6.46066485e+07
8.80000000e+01	6.72471460e+07
8.90000000e+01	6.99951768e+07
9.00000000e+01	7.28551143e+07
9.10000000e+01	7.58315133e+07
9.20000000e+01	7.89291164e+07
9.30000000e+01	8.21528626e+07
9.40000000e+01	8.55078945e+07
9.50000000e+01	8.89995660e+07
9.60000000e+01	9.26334507e+07
9.70000000e+01	9.64153504e+07
9.80000000e+01	1.00351303e+08
9.90000000e+01	1.04447593e+08
1.00000000e+02	1.08710760e+08
1.01000000e+02	1.13147611e+08
1.02000000e+02	1.17765227e+08
1.03000000e+02	1.22570978e+08
1.04000000e+02	1.27572534e+08
1.05000000e+02	1.32777874e+08
1.06000000e+02	1.38195304e+08
1.07000000e+02	1.43833465e+08
1.08000000e+02	1.49701349e+08
1.09000000e+02	1.55808314e+08
1.10000000e+02	1.62164096e+08
1.11000000e+02	1.68778828e+08
1.12000000e+02	1.75663053e+08
1.13000000e+02	1.82827742e+08
1.14000000e+02	1.90284309e+08
1.15000000e+02	1.98044635e+08
1.16000000e+02	2.06121079e+08
1.17000000e+02	2.14526501e+08
1.18000000e+02	2.23274285e+08
1.19000000e+02	2.32378354e+08
1.20000000e+02	2.41853197e+08
1.21000000e+02	2.51713889e+08
1.22000000e+02	2.61976114e+08
1.23000000e+02	2.72656191e+08
1.24000000e+02	2.83771101e+08
1.25000000e+02	2.95338510e+08
1.26000000e+02	3.07376798e+08
1.27000000e+02	3.19905088e+08
1.28000000e+02	3.32943276e+08
1.29000000e+02	3.46512060e+08
1.30000000e+02	3.60632975e+08
1.31000000e+02	3.75328423e+08
1.32000000e+02	3.90621710e+08
1.33000000e+02	4.06537082e+08
1.34000000e+02	4.23099761e+08
1.35000000e+02	4.40335986e+08
1.36000000e+02	4.58273049e+08
1.37000000e+02	4.76939342e+08
1.38000000e+02	4.96364399e+08
1.39000000e+02	5.16578938e+08
1.40000000e+02	5.37614913e+08
1.41000000e+02	5.59505557e+08
1.42000000e+02	5.82285438e+08
1.43000000e+02	6.05990508e+08
1.44000000e+02	6.30658160e+08
1.45000000e+02	6.56327280e+08
1.46000000e+02	6.83038312e+08
1.47000000e+02	7.10833313e+08
1.48000000e+02	7.39756020e+08
1.49000000e+02	7.69851914e+08
1.50000000e+02	8.01168287e+08
1.51000000e+02	8.33754313e+08
1.52000000e+02	8.67661124e+08
1.53000000e+02	9.02941879e+08
1.54000000e+02	9.39651851e+08
1.55000000e+02	9.77848501e+08
1.56000000e+02	1.01759157e+09
1.57000000e+02	1.05894314e+09
1.58000000e+02	1.10196779e+09
1.59000000e+02	1.14673260e+09
1.60000000e+02	1.19330731e+09
1.61000000e+02	1.24176441e+09
1.62000000e+02	1.29217925e+09
1.63000000e+02	1.34463009e+09
1.64000000e+02	1.39919830e+09
1.65000000e+02	1.45596842e+09
1.66000000e+02	1.51502829e+09
1.67000000e+02	1.57646916e+09
1.68000000e+02	1.64038586e+09
1.69000000e+02	1.70687686e+09
1.70000000e+02	1.77604450e+09
1.71000000e+02	1.84799504e+09
1.72000000e+02	1.92283887e+09
1.73000000e+02	2.00069060e+09
1.74000000e+02	2.08166929e+09
1.75000000e+02	2.16589853e+09
1.76000000e+02	2.25350667e+09
1.77000000e+02	2.34462694e+09
1.78000000e+02	2.43939765e+09
1.79000000e+02	2.53796239e+09
1.80000000e+02	2.64047015e+09
1.81000000e+02	2.74707559e+09
1.82000000e+02	2.85793918e+09
1.83000000e+02	2.97322742e+09
1.84000000e+02	3.09311305e+09
1.85000000e+02	3.21777526e+09
1.86000000e+02	3.34739993e+09
1.87000000e+02	3.48217983e+09
1.88000000e+02	3.62231484e+09
1.89000000e+02	3.76801223e+09
1.90000000e+02	3.91948687e+09
1.91000000e+02	4.07696151e+09
1.92000000e+02	4.24066700e+09
1.93000000e+02	4.41084258e+09
1.94000000e+02	4.58773613e+09
1.95000000e+02	4.77160447e+09
1.96000000e+02	4.96271361e+09
1.97000000e+02	5.16133908e+09
1.98000000e+02	5.36776617e+09
1.99000000e+02	5.58229028e+09
2.00000000e+02	5.80521718e+09
2.01000000e+02	6.03686336e+09
2.02000000e+02	6.27755634e+09
2.03000000e+02	6.52763497e+09
2.04000000e+02	6.78744978e+09
2.05000000e+02	7.05736332e+09
2.06000000e+02	7.33775047e+09
2.07000000e+02	7.62899881e+09
2.08000000e+02	7.93150897e+09
2.09000000e+02	8.24569497e+09
2.10000000e+02	8.57198458e+09
2.11000000e+02	8.91081968e+09
2.12000000e+02	9.26265664e+09
2.13000000e+02	9.62796668e+09
2.14000000e+02	1.00072362e+10
2.15000000e+02	1.04009673e+10
2.16000000e+02	1.08096779e+10
2.17000000e+02	1.12339024e+10
2.18000000e+02	1.16741918e+10
2.19000000e+02	1.21311142e+10
2.20000000e+02	1.26052554e+10
2.21000000e+02	1.30972188e+10
2.22000000e+02	1.36076260e+10
2.23000000e+02	1.41371174e+10
2.24000000e+02	1.46863523e+10
2.25000000e+02	1.52560092e+10
2.26000000e+02	1.58467865e+10
2.27000000e+02	1.64594023e+10
2.28000000e+02	1.70945955e+10
2.29000000e+02	1.77531255e+10
2.30000000e+02	1.84357726e+10
2.31000000e+02	1.91433388e+10
2.32000000e+02	1.98766477e+10
2.33000000e+02	2.06365446e+10
2.34000000e+02	2.14238973e+10
2.35000000e+02	2.22395961e+10
2.36000000e+02	2.30845541e+10
2.37000000e+02	2.39597072e+10
2.38000000e+02	2.48660149e+10
2.39000000e+02	2.58044597e+10
2.40000000e+02	2.67760480e+10
2.41000000e+02	2.77818098e+10
2.42000000e+02	2.88227991e+10
2.43000000e+02	2.99000937e+10
2.44000000e+02	3.10147955e+10
2.45000000e+02	3.21680307e+10
2.46000000e+02	3.33609494e+10
2.47000000e+02	3.45947258e+10
2.48000000e+02	3.58705583e+10
2.49000000e+02	3.71896691e+10
2.50000000e+02	3.85533044e+10
2.51000000e+02	3.99627341e+10
2.52000000e+02	4.14192515e+10
2.53000000e+02	4.29241732e+10
2.54000000e+02	4.44788389e+10
2.55000000e+02	4.60846108e+10
2.56000000e+02	4.77428737e+10
2.57000000e+02	4.94550339e+10
2.58000000e+02	5.12225197e+10
2.59000000e+02	5.30467798e+10
2.60000000e+02	5.49292838e+10
2.61000000e+02	5.68715206e+10
2.62000000e+02	5.88749987e+10
2.63000000e+02	6.09412449e+10
2.64000000e+02	6.30718035e+10
2.65000000e+02	6.52682360e+10
2.66000000e+02	6.75321196e+10
2.67000000e+02	6.98650469e+10
2.68000000e+02	7.22686244e+10
2.69000000e+02	7.47444718e+10
2.70000000e+02	7.72942206e+10
2.71000000e+02	7.99195135e+10
2.72000000e+02	8.26220026e+10
2.73000000e+02	8.54033484e+10
2.74000000e+02	8.82652187e+10
2.75000000e+02	9.12092867e+10
2.76000000e+02	9.42372303e+10
2.77000000e+02	9.73507297e+10
2.78000000e+02	1.00551467e+11
2.79000000e+02	1.03841123e+11
2.80000000e+02	1.07221378e+11
2.81000000e+02	1.10693908e+11
2.82000000e+02	1.14260383e+11
2.83000000e+02	1.17922466e+11
2.84000000e+02	1.21681812e+11
2.85000000e+02	1.25540065e+11
2.86000000e+02	1.29498854e+11
2.87000000e+02	1.33559797e+11
2.88000000e+02	1.37724492e+11
2.89000000e+02	1.41994520e+11
2.90000000e+02	1.46371441e+11
2.91000000e+02	1.50856790e+11
2.92000000e+02	1.55452080e+11
2.93000000e+02	1.60158795e+11
2.94000000e+02	1.64978389e+11
2.95000000e+02	1.69912287e+11
2.96000000e+02	1.74961876e+11
2.97000000e+02	1.80128510e+11
2.98000000e+02	1.85413505e+11
2.99000000e+02	1.90818134e+11
3.00000000e+02	1.96343628e+11
3.01000000e+02	2.01991175e+11
3.02000000e+02	2.07761912e+11
3.03000000e+02	2.13656930e+11
3.04000000e+02	2.19677264e+11
3.05000000e+02	2.25823900e+11
3.06000000e+02	2.32097763e+11
3.07000000e+02	2.38499723e+11
3.08000000e+02	2.45030586e+11
3.09000000e+02	2.51691099e+11
3.10000000e+02	2.58481941e+11
3.11000000e+02	2.65403725e+11
3.12000000e+02	2.72456996e+11
3.13000000e+02	2.79642226e+11
3.14000000e+02	2.86959817e+11
3.15000000e+02	2.94410094e+11
3.16000000e+02	3.01993306e+11
3.17000000e+02	3.09709622e+11
3.18000000e+02	3.17559135e+11
3.19000000e+02	3.25541851e+11
3.20000000e+02	3.33657697e+11
3.21000000e+02	3.41906513e+11
3.22000000e+02	3.50288053e+11
3.23000000e+02	3.58801983e+11
3.24000000e+02	3.67447880e+11
3.25000000e+02	3.76225231e+11
3.26000000e+02	3.85133432e+11
3.27000000e+02	3.94171787e+11
3.28000000e+02	4.03339503e+11
3.29000000e+02	4.12635698e+11
3.30000000e+02	4.22059391e+11
3.31000000e+02	4.31609506e+11
3.32000000e+02	4.41284872e+11
3.33000000e+02	4.51084219e+11
3.34000000e+02	4.61006180e+11
3.35000000e+02	4.71049291e+11
3.36000000e+02	4.81211989e+11
3.37000000e+02	4.91492613e+11
3.38000000e+02	5.01889404e+11
3.39000000e+02	5.12400504e+11
3.40000000e+02	5.23023958e+11
3.41000000e+02	5.33757711e+11
3.42000000e+02	5.44599611e+11
3.43000000e+02	5.55547409e+11
3.44000000e+02	5.66598759e+11
3.45000000e+02	5.77751217e+11
3.46000000e+02	5.89002246e+11
3.47000000e+02	6.00349212e+11
3.48000000e+02	6.11789387e+11
3.49000000e+02	6.23319948e+11
3.50000000e+02	6.34937983e+11
3.51000000e+02	6.46640485e+11
3.52000000e+02	6.58424359e+11
3.53000000e+02	6.70286420e+11
3.54000000e+02	6.82223394e+11
3.55000000e+02	6.94231921e+11
3.56000000e+02	7.06308557e+11
3.57000000e+02	7.18449772e+11
3.58000000e+02	7.30651955e+11
3.59000000e+02	7.42911415e+11
3.60000000e+02	7.55224378e+11
3.61000000e+02	7.67586997e+11
3.62000000e+02	7.79995347e+11
3.63000000e+02	7.92445429e+11
3.64000000e+02	8.04933172e+11
3.65000000e+02	8.17454435e+11
3.66000000e+02	8.30005007e+11
3.67000000e+02	8.42580612e+11
3.68000000e+02	8.55176910e+11
3.69000000e+02	8.67789496e+11
3.70000000e+02	8.80413907e+11
3.71000000e+02	8.93045620e+11
3.72000000e+02	9.05680056e+11
3.73000000e+02	9.18312582e+11
3.74000000e+02	9.30938514e+11
3.75000000e+02	9.43553116e+11
3.76000000e+02	9.56151606e+11
3.77000000e+02	9.68729156e+11
3.78000000e+02	9.81280896e+11
3.79000000e+02	9.93801912e+11
3.80000000e+02	1.00628726e+12
3.81000000e+02	1.01873194e+12
3.82000000e+02	1.03113094e+12
3.83000000e+02	1.04347921e+12
3.84000000e+02	1.05577167e+12
3.85000000e+02	1.06800320e+12
3.86000000e+02	1.08016867e+12
3.87000000e+02	1.09226294e+12
3.88000000e+02	1.10428082e+12
3.89000000e+02	1.11621712e+12
3.90000000e+02	1.12806663e+12
3.91000000e+02	1.13982413e+12
3.92000000e+02	1.15148440e+12
3.93000000e+02	1.16304220e+12
3.94000000e+02	1.17449227e+12
3.95000000e+02	1.18582939e+12
3.96000000e+02	1.19704829e+12
3.97000000e+02	1.20814373e+12
3.98000000e+02	1.21911048e+12
3.99000000e+02	1.22994330e+12
4.00000000e+02	1.24063697e+12
4.01000000e+02	1.25118628e+12
4.02000000e+02	1.26158602e+12
4.03000000e+02	1.27183101e+12
4.04000000e+02	1.28191610e+12
4.05000000e+02	1.29183613e+12
4.06000000e+02	1.30158600e+12
4.07000000e+02	1.31116061e+12
4.08000000e+02	1.32055489e+12
4.09000000e+02	1.32976381e+12
4.10000000e+02	1.33878238e+12
4.11000000e+02	1.34760563e+12
4.12000000e+02	1.35622862e+12
4.13000000e+02	1.36464647e+12
4.14000000e+02	1.37285434e+12
4.15000000e+02	1.38084741e+12
4.16000000e+02	1.38862094e+12
4.17000000e+02	1.39617020e+12
4.18000000e+02	1.40349055e+12
4.19000000e+02	1.41057736e+12
4.20000000e+02	1.41742608e+12
4.21000000e+02	1.42403221e+12
4.22000000e+02	1.43039129e+12
4.23000000e+02	1.43649895e+12
4.24000000e+02	1.44235084e+12
4.25000000e+02	1.44794271e+12
4.26000000e+02	1.45327033e+12
4.27000000e+02	1.45832956e+12
4.28000000e+02	1.46311631e+12
4.29000000e+02	1.46762657e+12
4.30000000e+02	1.47185638e+12
4.31000000e+02	1.47580184e+12
4.32000000e+02	1.47945914e+12
4.33000000e+02	1.48282451e+12
4.34000000e+02	1.48589427e+12
4.35000000e+02	1.48866477e+12
4.36000000e+02	1.49113248e+12
4.37000000e+02	1.49329389e+12
4.38000000e+02	1.49514558e+12
4.39000000e+02	1.49668418e+12
4.40000000e+02	1.49790641e+12
4.41000000e+02	1.49880904e+12
4.42000000e+02	1.49938890e+12
4.43000000e+02	1.49964290e+12
4.44000000e+02	1.49956800e+12
4.45000000e+02	1.49916123e+12
4.46000000e+02	1.49841970e+12
4.47000000e+02	1.49734057e+12
4.48000000e+02	1.49592106e+12
4.49000000e+02	1.49415847e+12
4.50000000e+02	1.49205015e+12
4.51000000e+02	1.48959352e+12
4.52000000e+02	1.48678609e+12
4.53000000e+02	1.48362541e+12
4.54000000e+02	1.48010912e+12
4.55000000e+02	1.47623491e+12
4.56000000e+02	1.47200058e+12
4.57000000e+02	1.46740399e+12
4.58000000e+02	1.46244308e+12
4.59000000e+02	1.45711589e+12
4.60000000e+02	1.45142055e+12
4.61000000e+02	1.44535529e+12
4.62000000e+02	1.43891845e+12
4.63000000e+02	1.43210850e+12
4.64000000e+02	1.42492401e+12
4.65000000e+02	1.41736369e+12
4.66000000e+02	1.40942642e+12
4.67000000e+02	1.40111123e+12
4.68000000e+02	1.39241730e+12
4.69000000e+02	1.38334403e+12
4.70000000e+02	1.37389101e+12
4.71000000e+02	1.36405805e+12
4.72000000e+02	1.35384520e+12
4.73000000e+02	1.34325278e+12
4.74000000e+02	1.33228138e+12
4.75000000e+02	1.32093188e+12
4.76000000e+02	1.30920550e+12
4.77000000e+02	1.29710380e+12
4.78000000e+02	1.28462871e+12
4.79000000e+02	1.27178255e+12
4.80000000e+02	1.25856807e+12
4.81000000e+02	1.24498844e+12
4.82000000e+02	1.23104731e+12
4.83000000e+02	1.21674882e+12
4.84000000e+02	1.20209762e+12
4.85000000e+02	1.18709889e+12
4.86000000e+02	1.17175836e+12
4.87000000e+02	1.15608235e+12
4.88000000e+02	1.14007774e+12
4.89000000e+02	1.12375204e+12
4.90000000e+02	1.10711336e+12
4.91000000e+02	1.09017043e+12
4.92000000e+02	1.07293262e+12
4.93000000e+02	1.05540994e+12
4.94000000e+02	1.03761301e+12
4.95000000e+02	1.01955311e+12
4.96000000e+02	1.00124214e+12
4.97000000e+02	9.82692623e+11
4.98000000e+02	9.63917675e+11
4.99000000e+02	9.44931025e+11
5.00000000e+02	9.25746978e+11
5.01000000e+02	9.06380403e+11
5.02000000e+02	8.86846712e+11
5.03000000e+02	8.67161840e+11
5.04000000e+02	8.47342222e+11
5.05000000e+02	8.27404771e+11
5.06000000e+02	8.07366850e+11
5.07000000e+02	7.87246249e+11
5.08000000e+02	7.67061160e+11
5.09000000e+02	7.46830144e+11
5.10000000e+02	7.26572111e+11
5.11000000e+02	7.06306286e+11
5.12000000e+02	6.86052180e+11
5.13000000e+02	6.65829563e+11
5.14000000e+02	6.45658426e+11
5.15000000e+02	6.25558953e+11
5.16000000e+02	6.05551482e+11
5.17000000e+02	5.85656467e+11
5.18000000e+02	5.65894440e+11
5.19000000e+02	5.46285963e+11
5.20000000e+02	5.26851584e+11
5.21000000e+02	5.07611785e+11
5.22000000e+02	4.88586927e+11
5.23000000e+02	4.69797191e+11
5.24000000e+02	4.51262514e+11
5.25000000e+02	4.33002524e+11
5.26000000e+02	4.15036462e+11
5.27000000e+02	3.97383112e+11
5.28000000e+02	3.80060717e+11
5.29000000e+02	3.63086897e+11
5.30000000e+02	3.46478560e+11
5.31000000e+02	3.30251819e+11
5.32000000e+02	3.14421897e+11
5.33000000e+02	2.99003039e+11
5.34000000e+02	2.84008422e+11
5.35000000e+02	2.69450071e+11
5.36000000e+02	2.55338772e+11
5.37000000e+02	2.41683997e+11
5.38000000e+02	2.28493830e+11
5.39000000e+02	2.15774904e+11
5.40000000e+02	2.03532345e+11
5.41000000e+02	1.91769730e+11
5.42000000e+02	1.80489057e+11
5.43000000e+02	1.69690721e+11
5.44000000e+02	1.59373516e+11
5.45000000e+02	1.49534640e+11
5.46000000e+02	1.40169725e+11
5.47000000e+02	1.31272877e+11
5.48000000e+02	1.22836730e+11
5.49000000e+02	1.14852520e+11
5.50000000e+02	1.07310171e+11
5.51000000e+02	1.00198388e+11
5.52000000e+02	9.35047699e+10
5.53000000e+02	8.72159274e+10
5.54000000e+02	8.13176087e+10
5.55000000e+02	7.57948321e+10
5.56000000e+02	7.06320209e+10
5.57000000e+02	6.58131408e+10
5.58000000e+02	6.13218356e+10
5.59000000e+02	5.71415601e+10
5.60000000e+02	5.32557082e+10
5.61000000e+02	4.96477342e+10
5.62000000e+02	4.63012660e+10
5.63000000e+02	4.32002083e+10
5.64000000e+02	4.03288362e+10
5.65000000e+02	3.76718767e+10
5.66000000e+02	3.52145787e+10
5.67000000e+02	3.29427718e+10
5.68000000e+02	3.08429125e+10
5.69000000e+02	2.89021198e+10
5.70000000e+02	2.71081999e+10
5.71000000e+02	2.54496602e+10
5.72000000e+02	2.39157146e+10
5.73000000e+02	2.24962810e+10
5.74000000e+02	2.11819701e+10
5.75000000e+02	1.99640692e+10
5.76000000e+02	1.88345205e+10
5.77000000e+02	1.77858944e+10
5.78000000e+02	1.68113607e+10
5.79000000e+02	1.59046561e+10
5.80000000e+02	1.50600514e+10
5.81000000e+02	1.42723167e+10
5.82000000e+02	1.35366871e+10
5.83000000e+02	1.28488280e+10
5.84000000e+02	1.22048021e+10
5.85000000e+02	1.16010362e+10
5.86000000e+02	1.10342908e+10
5.87000000e+02	1.05016300e+10
5.88000000e+02	1.00003940e+10
5.89000000e+02	9.52817328e+09
5.90000000e+02	9.08278415e+09
5.91000000e+02	8.66224691e+09
5.92000000e+02	8.26476536e+09
5.93000000e+02	7.88870819e+09
5.94000000e+02	7.53259219e+09
5.95000000e+02	7.19506693e+09
5.96000000e+02	6.87490105e+09
5.97000000e+02	6.57096991e+09
5.98000000e+02	6.28224451e+09
5.99000000e+02	6.00778165e+09
6.00000000e+02	5.74671507e+09
6.01000000e+02	5.49824766e+09
6.02000000e+02	5.26164447e+09
6.03000000e+02	5.03622652e+09
6.04000000e+02	4.82136535e+09
6.05000000e+02	4.61647809e+09
6.06000000e+02	4.42102321e+09
6.07000000e+02	4.23449664e+09
6.08000000e+02	4.05642839e+09
6.09000000e+02	3.88637950e+09
6.10000000e+02	3.72393938e+09
6.11000000e+02	3.56872339e+09
6.12000000e+02	3.42037067e+09
6.13000000e+02	3.27854227e+09
6.14000000e+02	3.14291940e+09
6.15000000e+02	3.01320187e+09
6.16000000e+02	2.88910675e+09
6.17000000e+02	2.77036703e+09
6.18000000e+02	2.65673055e+09
6.19000000e+02	2.54795895e+09
6.20000000e+02	2.44382669e+09
6.21000000e+02	2.34412024e+09
6.22000000e+02	2.24863729e+09
6.23000000e+02	2.15718599e+09
6.24000000e+02	2.06958436e+09
6.25000000e+02	1.98565960e+09
6.26000000e+02	1.90524761e+09
6.27000000e+02	1.82819241e+09
6.28000000e+02	1.75434569e+09
6.29000000e+02	1.68356638e+09
6.30000000e+02	1.61572018e+09
6.31000000e+02	1.55067923e+09
6.32000000e+02	1.48832174e+09
6.33000000e+02	1.42853161e+09
6.34000000e+02	1.37119815e+09
6.35000000e+02	1.31621576e+09
6.36000000e+02	1.26348369e+09
6.37000000e+02	1.21290567e+09
6.38000000e+02	1.16438977e+09
6.39000000e+02	1.11784808e+09
6.40000000e+02	1.07319648e+09
6.41000000e+02	1.03035446e+09
6.42000000e+02	9.89244840e+08
6.43000000e+02	9.49793616e+08
6.44000000e+02	9.11929737e+08
6.45000000e+02	8.75584929e+08
6.46000000e+02	8.40693514e+08
6.47000000e+02	8.07192261e+08
6.48000000e+02	7.75020237e+08
6.49000000e+02	7.44118685e+08
6.50000000e+02	7.14430923e+08
6.51000000e+02	6.85902257e+08
6.52000000e+02	6.58479924e+08
6.53000000e+02	6.32113049e+08
6.54000000e+02	6.06752625e+08
6.55000000e+02	5.82351508e+08
6.56000000e+02	5.58864419e+08
6.57000000e+02	5.36247958e+08
6.58000000e+02	5.14460616e+08
6.59000000e+02	4.93462780e+08
