# Profil de FluxX au temps 6.000000000000061e-12 
# simu : /Volumes/MERCURE/JOBS/Zeq2_tanh_50mic_2p1e19_B0_20ps/GNU/FluxX@y-c.set
# col 0 : abscisse (um)
# col 1 : FluxX (W/cm2)
0.00000000e+00	0.00000000e+00
1.00000000e+00	1.70867363e+06
2.00000000e+00	3.39429859e+06
3.00000000e+00	5.15453490e+06
4.00000000e+00	6.87203316e+06
5.00000000e+00	8.59682036e+06
6.00000000e+00	1.03342799e+07
7.00000000e+00	1.20878901e+07
8.00000000e+00	1.38606451e+07
9.00000000e+00	1.56554099e+07
1.00000000e+01	1.74750531e+07
1.10000000e+01	1.93224793e+07
1.20000000e+01	2.12006369e+07
1.30000000e+01	2.31125235e+07
1.40000000e+01	2.50611902e+07
1.50000000e+01	2.70497462e+07
1.60000000e+01	2.90813640e+07
1.70000000e+01	3.11592843e+07
1.80000000e+01	3.32868206e+07
1.90000000e+01	3.54673654e+07
2.00000000e+01	3.77043952e+07
2.10000000e+01	4.00014757e+07
2.20000000e+01	4.23622675e+07
2.30000000e+01	4.47905319e+07
2.40000000e+01	4.72901371e+07
2.50000000e+01	4.98650640e+07
2.60000000e+01	5.25194131e+07
2.70000000e+01	5.52574099e+07
2.80000000e+01	5.80834129e+07
2.90000000e+01	6.10019204e+07
3.00000000e+01	6.40175757e+07
3.10000000e+01	6.71351729e+07
3.20000000e+01	7.03596611e+07
3.30000000e+01	7.36961502e+07
3.40000000e+01	7.71499204e+07
3.50000000e+01	8.07264336e+07
3.60000000e+01	8.44313450e+07
3.70000000e+01	8.82705156e+07
3.80000000e+01	9.22500206e+07
3.90000000e+01	9.63761602e+07
4.00000000e+01	1.00655469e+08
4.10000000e+01	1.05094729e+08
4.20000000e+01	1.09700978e+08
4.30000000e+01	1.14481523e+08
4.40000000e+01	1.19443943e+08
4.50000000e+01	1.24596105e+08
4.60000000e+01	1.29946165e+08
4.70000000e+01	1.35502579e+08
4.80000000e+01	1.41274120e+08
4.90000000e+01	1.47269885e+08
5.00000000e+01	1.53499316e+08
5.10000000e+01	1.59972214e+08
5.20000000e+01	1.66698754e+08
5.30000000e+01	1.73689503e+08
5.40000000e+01	1.80955439e+08
5.50000000e+01	1.88507966e+08
5.60000000e+01	1.96358931e+08
5.70000000e+01	2.04520642e+08
5.80000000e+01	2.13005888e+08
5.90000000e+01	2.21827959e+08
6.00000000e+01	2.31000660e+08
6.10000000e+01	2.40538338e+08
6.20000000e+01	2.50455895e+08
6.30000000e+01	2.60768818e+08
6.40000000e+01	2.71493193e+08
6.50000000e+01	2.82645732e+08
6.60000000e+01	2.94243793e+08
6.70000000e+01	3.06305408e+08
6.80000000e+01	3.18849308e+08
6.90000000e+01	3.31894945e+08
7.00000000e+01	3.45462524e+08
7.10000000e+01	3.59573030e+08
7.20000000e+01	3.74248255e+08
7.30000000e+01	3.89510835e+08
7.40000000e+01	4.05384273e+08
7.50000000e+01	4.21892981e+08
7.60000000e+01	4.39062307e+08
7.70000000e+01	4.56918575e+08
7.80000000e+01	4.75489116e+08
7.90000000e+01	4.94802312e+08
8.00000000e+01	5.14887629e+08
8.10000000e+01	5.35775658e+08
8.20000000e+01	5.57498158e+08
8.30000000e+01	5.80088096e+08
8.40000000e+01	6.03579690e+08
8.50000000e+01	6.28008457e+08
8.60000000e+01	6.53411256e+08
8.70000000e+01	6.79826337e+08
8.80000000e+01	7.07293390e+08
8.90000000e+01	7.35853595e+08
9.00000000e+01	7.65549678e+08
9.10000000e+01	7.96425956e+08
9.20000000e+01	8.28528402e+08
9.30000000e+01	8.61904695e+08
9.40000000e+01	8.96604285e+08
9.50000000e+01	9.32678445e+08
9.60000000e+01	9.70180341e+08
9.70000000e+01	1.00916509e+09
9.80000000e+01	1.04968983e+09
9.90000000e+01	1.09181379e+09
1.00000000e+02	1.13559835e+09
1.01000000e+02	1.18110710e+09
1.02000000e+02	1.22840597e+09
1.03000000e+02	1.27756323e+09
1.04000000e+02	1.32864963e+09
1.05000000e+02	1.38173841e+09
1.06000000e+02	1.43690547e+09
1.07000000e+02	1.49422939e+09
1.08000000e+02	1.55379150e+09
1.09000000e+02	1.61567605e+09
1.10000000e+02	1.67997022e+09
1.11000000e+02	1.74676423e+09
1.12000000e+02	1.81615147e+09
1.13000000e+02	1.88822856e+09
1.14000000e+02	1.96309544e+09
1.15000000e+02	2.04085552e+09
1.16000000e+02	2.12161573e+09
1.17000000e+02	2.20548665e+09
1.18000000e+02	2.29258262e+09
1.19000000e+02	2.38302182e+09
1.20000000e+02	2.47692644e+09
1.21000000e+02	2.57442272e+09
1.22000000e+02	2.67564111e+09
1.23000000e+02	2.78071641e+09
1.24000000e+02	2.88978782e+09
1.25000000e+02	3.00299913e+09
1.26000000e+02	3.12049880e+09
1.27000000e+02	3.24244012e+09
1.28000000e+02	3.36898131e+09
1.29000000e+02	3.50028568e+09
1.30000000e+02	3.63652175e+09
1.31000000e+02	3.77786336e+09
1.32000000e+02	3.92448985e+09
1.33000000e+02	4.07658617e+09
1.34000000e+02	4.23434305e+09
1.35000000e+02	4.39795710e+09
1.36000000e+02	4.56763097e+09
1.37000000e+02	4.74357351e+09
1.38000000e+02	4.92599989e+09
1.39000000e+02	5.11513177e+09
1.40000000e+02	5.31119744e+09
1.41000000e+02	5.51443196e+09
1.42000000e+02	5.72507730e+09
1.43000000e+02	5.94338251e+09
1.44000000e+02	6.16960388e+09
1.45000000e+02	6.40400506e+09
1.46000000e+02	6.64685721e+09
1.47000000e+02	6.89843917e+09
1.48000000e+02	7.15903763e+09
1.49000000e+02	7.42894720e+09
1.50000000e+02	7.70847065e+09
1.51000000e+02	7.99791900e+09
1.52000000e+02	8.29761168e+09
1.53000000e+02	8.60787670e+09
1.54000000e+02	8.92905074e+09
1.55000000e+02	9.26147933e+09
1.56000000e+02	9.60551700e+09
1.57000000e+02	9.96152738e+09
1.58000000e+02	1.03298833e+10
1.59000000e+02	1.07109672e+10
1.60000000e+02	1.11051706e+10
1.61000000e+02	1.15128951e+10
1.62000000e+02	1.19345518e+10
1.63000000e+02	1.23705617e+10
1.64000000e+02	1.28213558e+10
1.65000000e+02	1.32873753e+10
1.66000000e+02	1.37690715e+10
1.67000000e+02	1.42669058e+10
1.68000000e+02	1.47813504e+10
1.69000000e+02	1.53128875e+10
1.70000000e+02	1.58620102e+10
1.71000000e+02	1.64292220e+10
1.72000000e+02	1.70150373e+10
1.73000000e+02	1.76199809e+10
1.74000000e+02	1.82445886e+10
1.75000000e+02	1.88894071e+10
1.76000000e+02	1.95549939e+10
1.77000000e+02	2.02419172e+10
1.78000000e+02	2.09507563e+10
1.79000000e+02	2.16821013e+10
1.80000000e+02	2.24365534e+10
1.81000000e+02	2.32147244e+10
1.82000000e+02	2.40172371e+10
1.83000000e+02	2.48447251e+10
1.84000000e+02	2.56978329e+10
1.85000000e+02	2.65772156e+10
1.86000000e+02	2.74835389e+10
1.87000000e+02	2.84174791e+10
1.88000000e+02	2.93797232e+10
1.89000000e+02	3.03709681e+10
1.90000000e+02	3.13919215e+10
1.91000000e+02	3.24433007e+10
1.92000000e+02	3.35258332e+10
1.93000000e+02	3.46402565e+10
1.94000000e+02	3.57873173e+10
1.95000000e+02	3.69677720e+10
1.96000000e+02	3.81823863e+10
1.97000000e+02	3.94319346e+10
1.98000000e+02	4.07172004e+10
1.99000000e+02	4.20389757e+10
2.00000000e+02	4.33980605e+10
2.01000000e+02	4.47952632e+10
2.02000000e+02	4.62313994e+10
2.03000000e+02	4.77072926e+10
2.04000000e+02	4.92237730e+10
2.05000000e+02	5.07816777e+10
2.06000000e+02	5.23818502e+10
2.07000000e+02	5.40251398e+10
2.08000000e+02	5.57124016e+10
2.09000000e+02	5.74444959e+10
2.10000000e+02	5.92222876e+10
2.11000000e+02	6.10466464e+10
2.12000000e+02	6.29184453e+10
2.13000000e+02	6.48385614e+10
2.14000000e+02	6.68078744e+10
2.15000000e+02	6.88272664e+10
2.16000000e+02	7.08976219e+10
2.17000000e+02	7.30198266e+10
2.18000000e+02	7.51947671e+10
2.19000000e+02	7.74233305e+10
2.20000000e+02	7.97064038e+10
2.21000000e+02	8.20448731e+10
2.22000000e+02	8.44396233e+10
2.23000000e+02	8.68915373e+10
2.24000000e+02	8.94014957e+10
2.25000000e+02	9.19703758e+10
2.26000000e+02	9.45990511e+10
2.27000000e+02	9.72883908e+10
2.28000000e+02	1.00039259e+11
2.29000000e+02	1.02852514e+11
2.30000000e+02	1.05729009e+11
2.31000000e+02	1.08669587e+11
2.32000000e+02	1.11675087e+11
2.33000000e+02	1.14746338e+11
2.34000000e+02	1.17884159e+11
2.35000000e+02	1.21089360e+11
2.36000000e+02	1.24362742e+11
2.37000000e+02	1.27705092e+11
2.38000000e+02	1.31117188e+11
2.39000000e+02	1.34599793e+11
2.40000000e+02	1.38153658e+11
2.41000000e+02	1.41779520e+11
2.42000000e+02	1.45478101e+11
2.43000000e+02	1.49250108e+11
2.44000000e+02	1.53096230e+11
2.45000000e+02	1.57017141e+11
2.46000000e+02	1.61013498e+11
2.47000000e+02	1.65085938e+11
2.48000000e+02	1.69235081e+11
2.49000000e+02	1.73461524e+11
2.50000000e+02	1.77765848e+11
2.51000000e+02	1.82148610e+11
2.52000000e+02	1.86610346e+11
2.53000000e+02	1.91151571e+11
2.54000000e+02	1.95772774e+11
2.55000000e+02	2.00474424e+11
2.56000000e+02	2.05256964e+11
2.57000000e+02	2.10120810e+11
2.58000000e+02	2.15066357e+11
2.59000000e+02	2.20093970e+11
2.60000000e+02	2.25203990e+11
2.61000000e+02	2.30396728e+11
2.62000000e+02	2.35672470e+11
2.63000000e+02	2.41031472e+11
2.64000000e+02	2.46473962e+11
2.65000000e+02	2.52000137e+11
2.66000000e+02	2.57610165e+11
2.67000000e+02	2.63304185e+11
2.68000000e+02	2.69082304e+11
2.69000000e+02	2.74944597e+11
2.70000000e+02	2.80891108e+11
2.71000000e+02	2.86921848e+11
2.72000000e+02	2.93036799e+11
2.73000000e+02	2.99235905e+11
2.74000000e+02	3.05519080e+11
2.75000000e+02	3.11886205e+11
2.76000000e+02	3.18337125e+11
2.77000000e+02	3.24871652e+11
2.78000000e+02	3.31489563e+11
2.79000000e+02	3.38190601e+11
2.80000000e+02	3.44974476e+11
2.81000000e+02	3.51840858e+11
2.82000000e+02	3.58789388e+11
2.83000000e+02	3.65819666e+11
2.84000000e+02	3.72931260e+11
2.85000000e+02	3.80123701e+11
2.86000000e+02	3.87396486e+11
2.87000000e+02	3.94749074e+11
2.88000000e+02	4.02180889e+11
2.89000000e+02	4.09691321e+11
2.90000000e+02	4.17279721e+11
2.91000000e+02	4.24945407e+11
2.92000000e+02	4.32687659e+11
2.93000000e+02	4.40505724e+11
2.94000000e+02	4.48398811e+11
2.95000000e+02	4.56366095e+11
2.96000000e+02	4.64406714e+11
2.97000000e+02	4.72519774e+11
2.98000000e+02	4.80704343e+11
2.99000000e+02	4.88959455e+11
3.00000000e+02	4.97284109e+11
3.01000000e+02	5.05677272e+11
3.02000000e+02	5.14137873e+11
3.03000000e+02	5.22664811e+11
3.04000000e+02	5.31256949e+11
3.05000000e+02	5.39913116e+11
3.06000000e+02	5.48632112e+11
3.07000000e+02	5.57412700e+11
3.08000000e+02	5.66253613e+11
3.09000000e+02	5.75153552e+11
3.10000000e+02	5.84111185e+11
3.11000000e+02	5.93125150e+11
3.12000000e+02	6.02194056e+11
3.13000000e+02	6.11316478e+11
3.14000000e+02	6.20490964e+11
3.15000000e+02	6.29716032e+11
3.16000000e+02	6.38990169e+11
3.17000000e+02	6.48311837e+11
3.18000000e+02	6.57679468e+11
3.19000000e+02	6.67091467e+11
3.20000000e+02	6.76546210e+11
3.21000000e+02	6.86042051e+11
3.22000000e+02	6.95577313e+11
3.23000000e+02	7.05150297e+11
3.24000000e+02	7.14759278e+11
3.25000000e+02	7.24402508e+11
3.26000000e+02	7.34078212e+11
3.27000000e+02	7.43784594e+11
3.28000000e+02	7.53519837e+11
3.29000000e+02	7.63282099e+11
3.30000000e+02	7.73069517e+11
3.31000000e+02	7.82880210e+11
3.32000000e+02	7.92712272e+11
3.33000000e+02	8.02563781e+11
3.34000000e+02	8.12432796e+11
3.35000000e+02	8.22317354e+11
3.36000000e+02	8.32215478e+11
3.37000000e+02	8.42125172e+11
3.38000000e+02	8.52044424e+11
3.39000000e+02	8.61971205e+11
3.40000000e+02	8.71903471e+11
3.41000000e+02	8.81839164e+11
3.42000000e+02	8.91776212e+11
3.43000000e+02	9.01712528e+11
3.44000000e+02	9.11646014e+11
3.45000000e+02	9.21574558e+11
3.46000000e+02	9.31496038e+11
3.47000000e+02	9.41408320e+11
3.48000000e+02	9.51309261e+11
3.49000000e+02	9.61196708e+11
3.50000000e+02	9.71068497e+11
3.51000000e+02	9.80922460e+11
3.52000000e+02	9.90756416e+11
3.53000000e+02	1.00056818e+12
3.54000000e+02	1.01035557e+12
3.55000000e+02	1.02011637e+12
3.56000000e+02	1.02984839e+12
3.57000000e+02	1.03954943e+12
3.58000000e+02	1.04921727e+12
3.59000000e+02	1.05884970e+12
3.60000000e+02	1.06844450e+12
3.61000000e+02	1.07799946e+12
3.62000000e+02	1.08751237e+12
3.63000000e+02	1.09698099e+12
3.64000000e+02	1.10640313e+12
3.65000000e+02	1.11577655e+12
3.66000000e+02	1.12509905e+12
3.67000000e+02	1.13436842e+12
3.68000000e+02	1.14358245e+12
3.69000000e+02	1.15273894e+12
3.70000000e+02	1.16183568e+12
3.71000000e+02	1.17087048e+12
3.72000000e+02	1.17984117e+12
3.73000000e+02	1.18874555e+12
3.74000000e+02	1.19758146e+12
3.75000000e+02	1.20634674e+12
3.76000000e+02	1.21503923e+12
3.77000000e+02	1.22365679e+12
3.78000000e+02	1.23219729e+12
3.79000000e+02	1.24065861e+12
3.80000000e+02	1.24903863e+12
3.81000000e+02	1.25733527e+12
3.82000000e+02	1.26554645e+12
3.83000000e+02	1.27367010e+12
3.84000000e+02	1.28170417e+12
3.85000000e+02	1.28964662e+12
3.86000000e+02	1.29749546e+12
3.87000000e+02	1.30524866e+12
3.88000000e+02	1.31290427e+12
3.89000000e+02	1.32046032e+12
3.90000000e+02	1.32791487e+12
3.91000000e+02	1.33526600e+12
3.92000000e+02	1.34251183e+12
3.93000000e+02	1.34965048e+12
3.94000000e+02	1.35668009e+12
3.95000000e+02	1.36359886e+12
3.96000000e+02	1.37040498e+12
3.97000000e+02	1.37709667e+12
3.98000000e+02	1.38367220e+12
3.99000000e+02	1.39012983e+12
4.00000000e+02	1.39646789e+12
4.01000000e+02	1.40268471e+12
4.02000000e+02	1.40877864e+12
4.03000000e+02	1.41474810e+12
4.04000000e+02	1.42059151e+12
4.05000000e+02	1.42630731e+12
4.06000000e+02	1.43189400e+12
4.07000000e+02	1.43735009e+12
4.08000000e+02	1.44267414e+12
4.09000000e+02	1.44786472e+12
4.10000000e+02	1.45292044e+12
4.11000000e+02	1.45783996e+12
4.12000000e+02	1.46262194e+12
4.13000000e+02	1.46726510e+12
4.14000000e+02	1.47176817e+12
4.15000000e+02	1.47612993e+12
4.16000000e+02	1.48034918e+12
4.17000000e+02	1.48442475e+12
4.18000000e+02	1.48835551e+12
4.19000000e+02	1.49214035e+12
4.20000000e+02	1.49577820e+12
4.21000000e+02	1.49926802e+12
4.22000000e+02	1.50260877e+12
4.23000000e+02	1.50579947e+12
4.24000000e+02	1.50883916e+12
4.25000000e+02	1.51172688e+12
4.26000000e+02	1.51446174e+12
4.27000000e+02	1.51704282e+12
4.28000000e+02	1.51946927e+12
4.29000000e+02	1.52174022e+12
4.30000000e+02	1.52385485e+12
4.31000000e+02	1.52581234e+12
4.32000000e+02	1.52761188e+12
4.33000000e+02	1.52925269e+12
4.34000000e+02	1.53073400e+12
4.35000000e+02	1.53205504e+12
4.36000000e+02	1.53321506e+12
4.37000000e+02	1.53421330e+12
4.38000000e+02	1.53504904e+12
4.39000000e+02	1.53572153e+12
4.40000000e+02	1.53623003e+12
4.41000000e+02	1.53657381e+12
4.42000000e+02	1.53675214e+12
4.43000000e+02	1.53676427e+12
4.44000000e+02	1.53660947e+12
4.45000000e+02	1.53628698e+12
4.46000000e+02	1.53579606e+12
4.47000000e+02	1.53513592e+12
4.48000000e+02	1.53430581e+12
4.49000000e+02	1.53330494e+12
4.50000000e+02	1.53213252e+12
4.51000000e+02	1.53078773e+12
4.52000000e+02	1.52926976e+12
4.53000000e+02	1.52757777e+12
4.54000000e+02	1.52571092e+12
4.55000000e+02	1.52366834e+12
4.56000000e+02	1.52144917e+12
4.57000000e+02	1.51905250e+12
4.58000000e+02	1.51647744e+12
4.59000000e+02	1.51372306e+12
4.60000000e+02	1.51078845e+12
4.61000000e+02	1.50767265e+12
4.62000000e+02	1.50437471e+12
4.63000000e+02	1.50089366e+12
4.64000000e+02	1.49722854e+12
4.65000000e+02	1.49337836e+12
4.66000000e+02	1.48934213e+12
4.67000000e+02	1.48511887e+12
4.68000000e+02	1.48070757e+12
4.69000000e+02	1.47610724e+12
4.70000000e+02	1.47131689e+12
4.71000000e+02	1.46633554e+12
4.72000000e+02	1.46116220e+12
4.73000000e+02	1.45579591e+12
4.74000000e+02	1.45023571e+12
4.75000000e+02	1.44448066e+12
4.76000000e+02	1.43852985e+12
4.77000000e+02	1.43238240e+12
4.78000000e+02	1.42603744e+12
4.79000000e+02	1.41949415e+12
4.80000000e+02	1.41275177e+12
4.81000000e+02	1.40580954e+12
4.82000000e+02	1.39866680e+12
4.83000000e+02	1.39132293e+12
4.84000000e+02	1.38377737e+12
4.85000000e+02	1.37602965e+12
4.86000000e+02	1.36807937e+12
4.87000000e+02	1.35992624e+12
4.88000000e+02	1.35157005e+12
4.89000000e+02	1.34301070e+12
4.90000000e+02	1.33424823e+12
4.91000000e+02	1.32528278e+12
4.92000000e+02	1.31611464e+12
4.93000000e+02	1.30674425e+12
4.94000000e+02	1.29717220e+12
4.95000000e+02	1.28739925e+12
4.96000000e+02	1.27742635e+12
4.97000000e+02	1.26725460e+12
4.98000000e+02	1.25688534e+12
4.99000000e+02	1.24632006e+12
5.00000000e+02	1.23556049e+12
5.01000000e+02	1.22460857e+12
5.02000000e+02	1.21346644e+12
5.03000000e+02	1.20213647e+12
5.04000000e+02	1.19062126e+12
5.05000000e+02	1.17892361e+12
5.06000000e+02	1.16704656e+12
5.07000000e+02	1.15499334e+12
5.08000000e+02	1.14276742e+12
5.09000000e+02	1.13037243e+12
5.10000000e+02	1.11781225e+12
5.11000000e+02	1.10509089e+12
5.12000000e+02	1.09221257e+12
5.13000000e+02	1.07918166e+12
5.14000000e+02	1.06600266e+12
5.15000000e+02	1.05268024e+12
5.16000000e+02	1.03921915e+12
5.17000000e+02	1.02562429e+12
5.18000000e+02	1.01190060e+12
5.19000000e+02	9.98053152e+11
5.20000000e+02	9.84087047e+11
5.21000000e+02	9.70007456e+11
5.22000000e+02	9.55819594e+11
5.23000000e+02	9.41528712e+11
5.24000000e+02	9.27140088e+11
5.25000000e+02	9.12659028e+11
5.26000000e+02	8.98090856e+11
5.27000000e+02	8.83440915e+11
5.28000000e+02	8.68714571e+11
5.29000000e+02	8.53917207e+11
5.30000000e+02	8.39054237e+11
5.31000000e+02	8.24131104e+11
5.32000000e+02	8.09153291e+11
5.33000000e+02	7.94126330e+11
5.34000000e+02	7.79055811e+11
5.35000000e+02	7.63947396e+11
5.36000000e+02	7.48806827e+11
5.37000000e+02	7.33639943e+11
5.38000000e+02	7.18452692e+11
5.39000000e+02	7.03251144e+11
5.40000000e+02	6.88041507e+11
5.41000000e+02	6.72830137e+11
5.42000000e+02	6.57623554e+11
5.43000000e+02	6.42428453e+11
5.44000000e+02	6.27251713e+11
5.45000000e+02	6.12100412e+11
5.46000000e+02	5.96981831e+11
5.47000000e+02	5.81903460e+11
5.48000000e+02	5.66873010e+11
5.49000000e+02	5.51898405e+11
5.50000000e+02	5.36987792e+11
5.51000000e+02	5.22149533e+11
5.52000000e+02	5.07392201e+11
5.53000000e+02	4.92724576e+11
5.54000000e+02	4.78155630e+11
5.55000000e+02	4.63694516e+11
5.56000000e+02	4.49350551e+11
5.57000000e+02	4.35133195e+11
5.58000000e+02	4.21052030e+11
5.59000000e+02	4.07116733e+11
5.60000000e+02	3.93337047e+11
5.61000000e+02	3.79722750e+11
5.62000000e+02	3.66283618e+11
5.63000000e+02	3.53029389e+11
5.64000000e+02	3.39969722e+11
5.65000000e+02	3.27114157e+11
5.66000000e+02	3.14472068e+11
5.67000000e+02	3.02052619e+11
5.68000000e+02	2.89864717e+11
5.69000000e+02	2.77916963e+11
5.70000000e+02	2.66217609e+11
5.71000000e+02	2.54774503e+11
5.72000000e+02	2.43595047e+11
5.73000000e+02	2.32686152e+11
5.74000000e+02	2.22054191e+11
5.75000000e+02	2.11704960e+11
5.76000000e+02	2.01643640e+11
5.77000000e+02	1.91874759e+11
5.78000000e+02	1.82402165e+11
5.79000000e+02	1.73228998e+11
5.80000000e+02	1.64357667e+11
5.81000000e+02	1.55789836e+11
5.82000000e+02	1.47526414e+11
5.83000000e+02	1.39567545e+11
5.84000000e+02	1.31912617e+11
5.85000000e+02	1.24560261e+11
5.86000000e+02	1.17508371e+11
5.87000000e+02	1.10754118e+11
5.88000000e+02	1.04293976e+11
5.89000000e+02	9.81237506e+10
5.90000000e+02	9.22386169e+10
5.91000000e+02	8.66331545e+10
5.92000000e+02	8.13013922e+10
5.93000000e+02	7.62368540e+10
5.94000000e+02	7.14326079e+10
5.95000000e+02	6.68813163e+10
5.96000000e+02	6.25752889e+10
5.97000000e+02	5.85065353e+10
5.98000000e+02	5.46668185e+10
5.99000000e+02	5.10477070e+10
6.00000000e+02	4.76406267e+10
6.01000000e+02	4.44369112e+10
6.02000000e+02	4.14278486e+10
6.03000000e+02	3.86047273e+10
6.04000000e+02	3.59588787e+10
6.05000000e+02	3.34817172e+10
6.06000000e+02	3.11647760e+10
6.07000000e+02	2.89997382e+10
6.08000000e+02	2.69784652e+10
6.09000000e+02	2.50930288e+10
6.10000000e+02	2.33357251e+10
6.11000000e+02	2.16990984e+10
6.12000000e+02	2.01759525e+10
6.13000000e+02	1.87593648e+10
6.14000000e+02	1.74426944e+10
6.15000000e+02	1.62195890e+10
6.16000000e+02	1.50839875e+10
6.17000000e+02	1.40301214e+10
6.18000000e+02	1.30525138e+10
6.19000000e+02	1.21459761e+10
6.20000000e+02	1.13056043e+10
6.21000000e+02	1.05267717e+10
6.22000000e+02	9.80512285e+09
6.23000000e+02	9.13656435e+09
6.24000000e+02	8.51725633e+09
6.25000000e+02	7.94360256e+09
6.26000000e+02	7.41224021e+09
6.27000000e+02	6.92002949e+09
6.28000000e+02	6.46404290e+09
6.29000000e+02	6.04155441e+09
6.30000000e+02	5.65002872e+09
6.31000000e+02	5.28711067e+09
6.32000000e+02	4.95061480e+09
6.33000000e+02	4.63851520e+09
6.34000000e+02	4.34893553e+09
6.35000000e+02	4.08013957e+09
6.36000000e+02	3.83052195e+09
6.37000000e+02	3.59859952e+09
6.38000000e+02	3.38300285e+09
6.39000000e+02	3.18246832e+09
6.40000000e+02	2.99583060e+09
6.41000000e+02	2.82201555e+09
6.42000000e+02	2.66003350e+09
6.43000000e+02	2.50897293e+09
6.44000000e+02	2.36799463e+09
6.45000000e+02	2.23632615e+09
6.46000000e+02	2.11325664e+09
6.47000000e+02	1.99813204e+09
6.48000000e+02	1.89035064e+09
6.49000000e+02	1.78935890e+09
6.50000000e+02	1.69464760e+09
6.51000000e+02	1.60574828e+09
6.52000000e+02	1.52222993e+09
6.53000000e+02	1.44369590e+09
6.54000000e+02	1.36978114e+09
6.55000000e+02	1.30014954e+09
6.56000000e+02	1.23449156e+09
6.57000000e+02	1.17252200e+09
6.58000000e+02	1.11397797e+09
6.59000000e+02	1.05861703e+09
