# Profil de FluxX au temps 1.000000000000012e-11 
# simu : /Volumes/MERCURE/JOBS/Zeq2_tanh_50mic_2p1e19_B0_20ps/GNU/FluxX@y-c.set
# col 0 : abscisse (um)
# col 1 : FluxX (W/cm2)
0.00000000e+00	0.00000000e+00
1.00000000e+00	2.27283632e+08
2.00000000e+00	4.54729195e+08
3.00000000e+00	6.82615374e+08
4.00000000e+00	9.11014549e+08
5.00000000e+00	1.14015798e+09
6.00000000e+00	1.37023428e+09
7.00000000e+00	1.60143764e+09
8.00000000e+00	1.83394968e+09
9.00000000e+00	2.06796505e+09
1.00000000e+01	2.30367075e+09
1.10000000e+01	2.54125666e+09
1.20000000e+01	2.78091365e+09
1.30000000e+01	3.02283281e+09
1.40000000e+01	3.26720710e+09
1.50000000e+01	3.51422923e+09
1.60000000e+01	3.76409315e+09
1.70000000e+01	4.01699330e+09
1.80000000e+01	4.27312483e+09
1.90000000e+01	4.53268655e+09
2.00000000e+01	4.79587365e+09
2.10000000e+01	5.06288771e+09
2.20000000e+01	5.33392629e+09
2.30000000e+01	5.60919342e+09
2.40000000e+01	5.88888946e+09
2.50000000e+01	6.17321969e+09
2.60000000e+01	6.46238931e+09
2.70000000e+01	6.75660394e+09
2.80000000e+01	7.05607314e+09
2.90000000e+01	7.36100629e+09
3.00000000e+01	7.67161403e+09
3.10000000e+01	7.98810953e+09
3.20000000e+01	8.31070773e+09
3.30000000e+01	8.63962455e+09
3.40000000e+01	8.97507723e+09
3.50000000e+01	9.31728653e+09
3.60000000e+01	9.66647428e+09
3.70000000e+01	1.00228671e+10
3.80000000e+01	1.03866890e+10
3.90000000e+01	1.07581673e+10
4.00000000e+01	1.11375300e+10
4.10000000e+01	1.15250075e+10
4.20000000e+01	1.19208321e+10
4.30000000e+01	1.23252388e+10
4.40000000e+01	1.27384646e+10
4.50000000e+01	1.31607481e+10
4.60000000e+01	1.35923304e+10
4.70000000e+01	1.40334542e+10
4.80000000e+01	1.44843652e+10
4.90000000e+01	1.49453106e+10
5.00000000e+01	1.54165399e+10
5.10000000e+01	1.58983046e+10
5.20000000e+01	1.63908582e+10
5.30000000e+01	1.68944563e+10
5.40000000e+01	1.74093574e+10
5.50000000e+01	1.79358214e+10
5.60000000e+01	1.84741104e+10
5.70000000e+01	1.90244887e+10
5.80000000e+01	1.95872226e+10
5.90000000e+01	2.01625807e+10
6.00000000e+01	2.07508332e+10
6.10000000e+01	2.13522534e+10
6.20000000e+01	2.19671157e+10
6.30000000e+01	2.25956968e+10
6.40000000e+01	2.32382802e+10
6.50000000e+01	2.38951512e+10
6.60000000e+01	2.45665870e+10
6.70000000e+01	2.52528704e+10
6.80000000e+01	2.59542866e+10
6.90000000e+01	2.66711234e+10
7.00000000e+01	2.74036704e+10
7.10000000e+01	2.81522195e+10
7.20000000e+01	2.89170640e+10
7.30000000e+01	2.96984992e+10
7.40000000e+01	3.04968219e+10
7.50000000e+01	3.13123306e+10
7.60000000e+01	3.21453254e+10
7.70000000e+01	3.29961076e+10
7.80000000e+01	3.38649802e+10
7.90000000e+01	3.47522476e+10
8.00000000e+01	3.56582152e+10
8.10000000e+01	3.65831900e+10
8.20000000e+01	3.75274799e+10
8.30000000e+01	3.84913941e+10
8.40000000e+01	3.94752426e+10
8.50000000e+01	4.04793367e+10
8.60000000e+01	4.15039884e+10
8.70000000e+01	4.25495103e+10
8.80000000e+01	4.36162161e+10
8.90000000e+01	4.47044201e+10
9.00000000e+01	4.58144368e+10
9.10000000e+01	4.69465816e+10
9.20000000e+01	4.81011701e+10
9.30000000e+01	4.92785183e+10
9.40000000e+01	5.04789422e+10
9.50000000e+01	5.17027582e+10
9.60000000e+01	5.29502826e+10
9.70000000e+01	5.42218314e+10
9.80000000e+01	5.55177209e+10
9.90000000e+01	5.68382667e+10
1.00000000e+02	5.81837842e+10
1.01000000e+02	5.95545884e+10
1.02000000e+02	6.09509935e+10
1.03000000e+02	6.23733133e+10
1.04000000e+02	6.38218605e+10
1.05000000e+02	6.52969471e+10
1.06000000e+02	6.67988841e+10
1.07000000e+02	6.83279811e+10
1.08000000e+02	6.98845468e+10
1.09000000e+02	7.14688883e+10
1.10000000e+02	7.30813114e+10
1.11000000e+02	7.47221202e+10
1.12000000e+02	7.63916171e+10
1.13000000e+02	7.80901029e+10
1.14000000e+02	7.98178760e+10
1.15000000e+02	8.15752333e+10
1.16000000e+02	8.33624690e+10
1.17000000e+02	8.51798754e+10
1.18000000e+02	8.70277423e+10
1.19000000e+02	8.89063567e+10
1.20000000e+02	9.08160034e+10
1.21000000e+02	9.27569639e+10
1.22000000e+02	9.47295172e+10
1.23000000e+02	9.67339392e+10
1.24000000e+02	9.87705024e+10
1.25000000e+02	1.00839476e+11
1.26000000e+02	1.02941127e+11
1.27000000e+02	1.05075717e+11
1.28000000e+02	1.07243506e+11
1.29000000e+02	1.09444747e+11
1.30000000e+02	1.11679694e+11
1.31000000e+02	1.13948592e+11
1.32000000e+02	1.16251686e+11
1.33000000e+02	1.18589213e+11
1.34000000e+02	1.20961410e+11
1.35000000e+02	1.23368505e+11
1.36000000e+02	1.25810724e+11
1.37000000e+02	1.28288289e+11
1.38000000e+02	1.30801416e+11
1.39000000e+02	1.33350315e+11
1.40000000e+02	1.35935192e+11
1.41000000e+02	1.38556249e+11
1.42000000e+02	1.41213682e+11
1.43000000e+02	1.43907680e+11
1.44000000e+02	1.46638428e+11
1.45000000e+02	1.49406107e+11
1.46000000e+02	1.52210889e+11
1.47000000e+02	1.55052943e+11
1.48000000e+02	1.57932430e+11
1.49000000e+02	1.60849506e+11
1.50000000e+02	1.63804321e+11
1.51000000e+02	1.66797020e+11
1.52000000e+02	1.69827739e+11
1.53000000e+02	1.72896610e+11
1.54000000e+02	1.76003757e+11
1.55000000e+02	1.79149299e+11
1.56000000e+02	1.82333347e+11
1.57000000e+02	1.85556006e+11
1.58000000e+02	1.88817373e+11
1.59000000e+02	1.92117541e+11
1.60000000e+02	1.95456594e+11
1.61000000e+02	1.98834608e+11
1.62000000e+02	2.02251654e+11
1.63000000e+02	2.05707795e+11
1.64000000e+02	2.09203087e+11
1.65000000e+02	2.12737578e+11
1.66000000e+02	2.16311309e+11
1.67000000e+02	2.19924315e+11
1.68000000e+02	2.23576621e+11
1.69000000e+02	2.27268246e+11
1.70000000e+02	2.30999202e+11
1.71000000e+02	2.34769492e+11
1.72000000e+02	2.38579113e+11
1.73000000e+02	2.42428051e+11
1.74000000e+02	2.46316289e+11
1.75000000e+02	2.50243798e+11
1.76000000e+02	2.54210543e+11
1.77000000e+02	2.58216481e+11
1.78000000e+02	2.62261563e+11
1.79000000e+02	2.66345727e+11
1.80000000e+02	2.70468909e+11
1.81000000e+02	2.74631033e+11
1.82000000e+02	2.78832016e+11
1.83000000e+02	2.83071768e+11
1.84000000e+02	2.87350191e+11
1.85000000e+02	2.91667176e+11
1.86000000e+02	2.96022610e+11
1.87000000e+02	3.00416369e+11
1.88000000e+02	3.04848323e+11
1.89000000e+02	3.09318333e+11
1.90000000e+02	3.13826251e+11
1.91000000e+02	3.18371923e+11
1.92000000e+02	3.22955185e+11
1.93000000e+02	3.27575866e+11
1.94000000e+02	3.32233787e+11
1.95000000e+02	3.36928760e+11
1.96000000e+02	3.41660591e+11
1.97000000e+02	3.46429076e+11
1.98000000e+02	3.51234004e+11
1.99000000e+02	3.56075156e+11
2.00000000e+02	3.60952304e+11
2.01000000e+02	3.65865213e+11
2.02000000e+02	3.70813642e+11
2.03000000e+02	3.75797339e+11
2.04000000e+02	3.80816045e+11
2.05000000e+02	3.85869495e+11
2.06000000e+02	3.90957414e+11
2.07000000e+02	3.96079521e+11
2.08000000e+02	4.01235527e+11
2.09000000e+02	4.06425133e+11
2.10000000e+02	4.11648038e+11
2.11000000e+02	4.16903927e+11
2.12000000e+02	4.22192482e+11
2.13000000e+02	4.27513375e+11
2.14000000e+02	4.32866273e+11
2.15000000e+02	4.38250835e+11
2.16000000e+02	4.43666711e+11
2.17000000e+02	4.49113545e+11
2.18000000e+02	4.54590975e+11
2.19000000e+02	4.60098630e+11
2.20000000e+02	4.65636133e+11
2.21000000e+02	4.71203100e+11
2.22000000e+02	4.76799140e+11
2.23000000e+02	4.82423855e+11
2.24000000e+02	4.88076842e+11
2.25000000e+02	4.93757688e+11
2.26000000e+02	4.99465976e+11
2.27000000e+02	5.05201281e+11
2.28000000e+02	5.10963174e+11
2.29000000e+02	5.16751216e+11
2.30000000e+02	5.22564965e+11
2.31000000e+02	5.28403970e+11
2.32000000e+02	5.34267776e+11
2.33000000e+02	5.40155920e+11
2.34000000e+02	5.46067936e+11
2.35000000e+02	5.52003349e+11
2.36000000e+02	5.57961679e+11
2.37000000e+02	5.63942442e+11
2.38000000e+02	5.69945145e+11
2.39000000e+02	5.75969293e+11
2.40000000e+02	5.82014383e+11
2.41000000e+02	5.88079907e+11
2.42000000e+02	5.94165353e+11
2.43000000e+02	6.00270203e+11
2.44000000e+02	6.06393932e+11
2.45000000e+02	6.12536013e+11
2.46000000e+02	6.18695912e+11
2.47000000e+02	6.24873091e+11
2.48000000e+02	6.31067007e+11
2.49000000e+02	6.37277112e+11
2.50000000e+02	6.43502852e+11
2.51000000e+02	6.49743672e+11
2.52000000e+02	6.55999010e+11
2.53000000e+02	6.62268299e+11
2.54000000e+02	6.68550970e+11
2.55000000e+02	6.74846448e+11
2.56000000e+02	6.81154155e+11
2.57000000e+02	6.87473508e+11
2.58000000e+02	6.93803921e+11
2.59000000e+02	7.00144803e+11
2.60000000e+02	7.06495561e+11
2.61000000e+02	7.12855597e+11
2.62000000e+02	7.19224311e+11
2.63000000e+02	7.25601096e+11
2.64000000e+02	7.31985346e+11
2.65000000e+02	7.38376450e+11
2.66000000e+02	7.44773792e+11
2.67000000e+02	7.51176756e+11
2.68000000e+02	7.57584720e+11
2.69000000e+02	7.63997063e+11
2.70000000e+02	7.70413156e+11
2.71000000e+02	7.76832373e+11
2.72000000e+02	7.83254081e+11
2.73000000e+02	7.89677646e+11
2.74000000e+02	7.96102433e+11
2.75000000e+02	8.02527801e+11
2.76000000e+02	8.08953112e+11
2.77000000e+02	8.15377720e+11
2.78000000e+02	8.21800983e+11
2.79000000e+02	8.28222252e+11
2.80000000e+02	8.34640878e+11
2.81000000e+02	8.41056213e+11
2.82000000e+02	8.47467602e+11
2.83000000e+02	8.53874393e+11
2.84000000e+02	8.60275930e+11
2.85000000e+02	8.66671558e+11
2.86000000e+02	8.73060618e+11
2.87000000e+02	8.79442451e+11
2.88000000e+02	8.85816399e+11
2.89000000e+02	8.92181800e+11
2.90000000e+02	8.98537992e+11
2.91000000e+02	9.04884314e+11
2.92000000e+02	9.11220103e+11
2.93000000e+02	9.17544695e+11
2.94000000e+02	9.23857427e+11
2.95000000e+02	9.30157634e+11
2.96000000e+02	9.36444653e+11
2.97000000e+02	9.42717819e+11
2.98000000e+02	9.48976468e+11
2.99000000e+02	9.55219936e+11
3.00000000e+02	9.61447560e+11
3.01000000e+02	9.67658676e+11
3.02000000e+02	9.73852621e+11
3.03000000e+02	9.80028734e+11
3.04000000e+02	9.86186352e+11
3.05000000e+02	9.92324815e+11
3.06000000e+02	9.98443464e+11
3.07000000e+02	1.00454164e+12
3.08000000e+02	1.01061869e+12
3.09000000e+02	1.01667395e+12
3.10000000e+02	1.02270677e+12
3.11000000e+02	1.02871649e+12
3.12000000e+02	1.03470248e+12
3.13000000e+02	1.04066407e+12
3.14000000e+02	1.04660062e+12
3.15000000e+02	1.05251149e+12
3.16000000e+02	1.05839603e+12
3.17000000e+02	1.06425361e+12
3.18000000e+02	1.07008358e+12
3.19000000e+02	1.07588531e+12
3.20000000e+02	1.08165817e+12
3.21000000e+02	1.08740154e+12
3.22000000e+02	1.09311478e+12
3.23000000e+02	1.09879728e+12
3.24000000e+02	1.10444841e+12
3.25000000e+02	1.11006757e+12
3.26000000e+02	1.11565414e+12
3.27000000e+02	1.12120751e+12
3.28000000e+02	1.12672709e+12
3.29000000e+02	1.13221228e+12
3.30000000e+02	1.13766247e+12
3.31000000e+02	1.14307710e+12
3.32000000e+02	1.14845556e+12
3.33000000e+02	1.15379729e+12
3.34000000e+02	1.15910170e+12
3.35000000e+02	1.16436825e+12
3.36000000e+02	1.16959635e+12
3.37000000e+02	1.17478546e+12
3.38000000e+02	1.17993503e+12
3.39000000e+02	1.18504452e+12
3.40000000e+02	1.19011339e+12
3.41000000e+02	1.19514111e+12
3.42000000e+02	1.20012716e+12
3.43000000e+02	1.20507102e+12
3.44000000e+02	1.20997219e+12
3.45000000e+02	1.21483017e+12
3.46000000e+02	1.21964447e+12
3.47000000e+02	1.22441460e+12
3.48000000e+02	1.22914008e+12
3.49000000e+02	1.23382046e+12
3.50000000e+02	1.23845527e+12
3.51000000e+02	1.24304407e+12
3.52000000e+02	1.24758642e+12
3.53000000e+02	1.25208188e+12
3.54000000e+02	1.25653004e+12
3.55000000e+02	1.26093048e+12
3.56000000e+02	1.26528281e+12
3.57000000e+02	1.26958664e+12
3.58000000e+02	1.27384158e+12
3.59000000e+02	1.27804727e+12
3.60000000e+02	1.28220336e+12
3.61000000e+02	1.28630948e+12
3.62000000e+02	1.29036532e+12
3.63000000e+02	1.29437054e+12
3.64000000e+02	1.29832483e+12
3.65000000e+02	1.30222789e+12
3.66000000e+02	1.30607943e+12
3.67000000e+02	1.30987918e+12
3.68000000e+02	1.31362687e+12
3.69000000e+02	1.31732224e+12
3.70000000e+02	1.32096506e+12
3.71000000e+02	1.32455509e+12
3.72000000e+02	1.32809212e+12
3.73000000e+02	1.33157595e+12
3.74000000e+02	1.33500638e+12
3.75000000e+02	1.33838323e+12
3.76000000e+02	1.34170634e+12
3.77000000e+02	1.34497554e+12
3.78000000e+02	1.34819069e+12
3.79000000e+02	1.35135167e+12
3.80000000e+02	1.35445835e+12
3.81000000e+02	1.35751061e+12
3.82000000e+02	1.36050837e+12
3.83000000e+02	1.36345152e+12
3.84000000e+02	1.36634001e+12
3.85000000e+02	1.36917375e+12
3.86000000e+02	1.37195269e+12
3.87000000e+02	1.37467679e+12
3.88000000e+02	1.37734600e+12
3.89000000e+02	1.37996030e+12
3.90000000e+02	1.38251965e+12
3.91000000e+02	1.38502406e+12
3.92000000e+02	1.38747350e+12
3.93000000e+02	1.38986798e+12
3.94000000e+02	1.39220751e+12
3.95000000e+02	1.39449209e+12
3.96000000e+02	1.39672173e+12
3.97000000e+02	1.39889645e+12
3.98000000e+02	1.40101628e+12
3.99000000e+02	1.40308123e+12
4.00000000e+02	1.40509133e+12
4.01000000e+02	1.40704660e+12
4.02000000e+02	1.40894706e+12
4.03000000e+02	1.41079274e+12
4.04000000e+02	1.41258366e+12
4.05000000e+02	1.41431983e+12
4.06000000e+02	1.41600126e+12
4.07000000e+02	1.41762796e+12
4.08000000e+02	1.41919994e+12
4.09000000e+02	1.42071718e+12
4.10000000e+02	1.42217968e+12
4.11000000e+02	1.42358740e+12
4.12000000e+02	1.42494032e+12
4.13000000e+02	1.42623840e+12
4.14000000e+02	1.42748158e+12
4.15000000e+02	1.42866980e+12
4.16000000e+02	1.42980297e+12
4.17000000e+02	1.43088100e+12
4.18000000e+02	1.43190379e+12
4.19000000e+02	1.43287121e+12
4.20000000e+02	1.43378313e+12
4.21000000e+02	1.43463938e+12
4.22000000e+02	1.43543980e+12
4.23000000e+02	1.43618419e+12
4.24000000e+02	1.43687236e+12
4.25000000e+02	1.43750406e+12
4.26000000e+02	1.43807905e+12
4.27000000e+02	1.43859708e+12
4.28000000e+02	1.43905786e+12
4.29000000e+02	1.43946109e+12
4.30000000e+02	1.43980644e+12
4.31000000e+02	1.44009357e+12
4.32000000e+02	1.44032213e+12
4.33000000e+02	1.44049174e+12
4.34000000e+02	1.44060199e+12
4.35000000e+02	1.44065248e+12
4.36000000e+02	1.44064277e+12
4.37000000e+02	1.44057242e+12
4.38000000e+02	1.44044095e+12
4.39000000e+02	1.44024788e+12
4.40000000e+02	1.43999271e+12
4.41000000e+02	1.43967494e+12
4.42000000e+02	1.43929403e+12
4.43000000e+02	1.43884944e+12
4.44000000e+02	1.43834063e+12
4.45000000e+02	1.43776703e+12
4.46000000e+02	1.43712806e+12
4.47000000e+02	1.43642315e+12
4.48000000e+02	1.43565170e+12
4.49000000e+02	1.43481312e+12
4.50000000e+02	1.43390681e+12
4.51000000e+02	1.43293215e+12
4.52000000e+02	1.43188855e+12
4.53000000e+02	1.43077538e+12
4.54000000e+02	1.42959204e+12
4.55000000e+02	1.42833792e+12
4.56000000e+02	1.42701240e+12
4.57000000e+02	1.42561487e+12
4.58000000e+02	1.42414474e+12
4.59000000e+02	1.42260141e+12
4.60000000e+02	1.42098428e+12
4.61000000e+02	1.41929278e+12
4.62000000e+02	1.41752633e+12
4.63000000e+02	1.41568437e+12
4.64000000e+02	1.41376635e+12
4.65000000e+02	1.41177172e+12
4.66000000e+02	1.40969997e+12
4.67000000e+02	1.40755058e+12
4.68000000e+02	1.40532306e+12
4.69000000e+02	1.40301693e+12
4.70000000e+02	1.40063173e+12
4.71000000e+02	1.39816701e+12
4.72000000e+02	1.39562236e+12
4.73000000e+02	1.39299738e+12
4.74000000e+02	1.39029167e+12
4.75000000e+02	1.38750489e+12
4.76000000e+02	1.38463669e+12
4.77000000e+02	1.38168676e+12
4.78000000e+02	1.37865480e+12
4.79000000e+02	1.37554055e+12
4.80000000e+02	1.37234378e+12
4.81000000e+02	1.36906425e+12
4.82000000e+02	1.36570178e+12
4.83000000e+02	1.36225620e+12
4.84000000e+02	1.35872738e+12
4.85000000e+02	1.35511521e+12
4.86000000e+02	1.35141959e+12
4.87000000e+02	1.34764049e+12
4.88000000e+02	1.34377787e+12
4.89000000e+02	1.33983173e+12
4.90000000e+02	1.33580212e+12
4.91000000e+02	1.33168909e+12
4.92000000e+02	1.32749275e+12
4.93000000e+02	1.32321322e+12
4.94000000e+02	1.31885066e+12
4.95000000e+02	1.31440528e+12
4.96000000e+02	1.30987731e+12
4.97000000e+02	1.30526701e+12
4.98000000e+02	1.30057468e+12
4.99000000e+02	1.29580068e+12
5.00000000e+02	1.29094538e+12
5.01000000e+02	1.28600921e+12
5.02000000e+02	1.28099264e+12
5.03000000e+02	1.27589617e+12
5.04000000e+02	1.27072035e+12
5.05000000e+02	1.26546580e+12
5.06000000e+02	1.26013315e+12
5.07000000e+02	1.25472310e+12
5.08000000e+02	1.24923641e+12
5.09000000e+02	1.24367387e+12
5.10000000e+02	1.23803634e+12
5.11000000e+02	1.23232473e+12
5.12000000e+02	1.22653999e+12
5.13000000e+02	1.22068316e+12
5.14000000e+02	1.21475531e+12
5.15000000e+02	1.20875759e+12
5.16000000e+02	1.20269119e+12
5.17000000e+02	1.19655736e+12
5.18000000e+02	1.19035744e+12
5.19000000e+02	1.18409280e+12
5.20000000e+02	1.17776486e+12
5.21000000e+02	1.17137514e+12
5.22000000e+02	1.16492518e+12
5.23000000e+02	1.15841659e+12
5.24000000e+02	1.15185102e+12
5.25000000e+02	1.14523018e+12
5.26000000e+02	1.13855584e+12
5.27000000e+02	1.13182979e+12
5.28000000e+02	1.12505387e+12
5.29000000e+02	1.11822996e+12
5.30000000e+02	1.11135996e+12
5.31000000e+02	1.10444580e+12
5.32000000e+02	1.09748942e+12
5.33000000e+02	1.09049280e+12
5.34000000e+02	1.08345790e+12
5.35000000e+02	1.07638669e+12
5.36000000e+02	1.06928114e+12
5.37000000e+02	1.06214318e+12
5.38000000e+02	1.05497476e+12
5.39000000e+02	1.04777777e+12
5.40000000e+02	1.04055408e+12
5.41000000e+02	1.03330553e+12
5.42000000e+02	1.02603388e+12
5.43000000e+02	1.01874087e+12
5.44000000e+02	1.01142817e+12
5.45000000e+02	1.00409737e+12
5.46000000e+02	9.96750005e+11
5.47000000e+02	9.89387538e+11
5.48000000e+02	9.82011346e+11
5.49000000e+02	9.74622724e+11
5.50000000e+02	9.67222884e+11
5.51000000e+02	9.59812951e+11
5.52000000e+02	9.52393959e+11
5.53000000e+02	9.44966851e+11
5.54000000e+02	9.37532481e+11
5.55000000e+02	9.30091608e+11
5.56000000e+02	9.22644904e+11
5.57000000e+02	9.15192948e+11
5.58000000e+02	9.07736230e+11
5.59000000e+02	9.00275153e+11
5.60000000e+02	8.92810035e+11
5.61000000e+02	8.85341112e+11
5.62000000e+02	8.77868538e+11
5.63000000e+02	8.70392392e+11
5.64000000e+02	8.62912679e+11
5.65000000e+02	8.55429334e+11
5.66000000e+02	8.47942227e+11
5.67000000e+02	8.40451163e+11
5.68000000e+02	8.32955894e+11
5.69000000e+02	8.25456116e+11
5.70000000e+02	8.17951475e+11
5.71000000e+02	8.10441576e+11
5.72000000e+02	8.02925982e+11
5.73000000e+02	7.95404224e+11
5.74000000e+02	7.87875800e+11
5.75000000e+02	7.80340187e+11
5.76000000e+02	7.72796840e+11
5.77000000e+02	7.65245199e+11
5.78000000e+02	7.57684697e+11
5.79000000e+02	7.50114762e+11
5.80000000e+02	7.42534822e+11
5.81000000e+02	7.34944313e+11
5.82000000e+02	7.27342679e+11
5.83000000e+02	7.19729385e+11
5.84000000e+02	7.12103915e+11
5.85000000e+02	7.04465781e+11
5.86000000e+02	6.96814526e+11
5.87000000e+02	6.89149731e+11
5.88000000e+02	6.81471018e+11
5.89000000e+02	6.73778058e+11
5.90000000e+02	6.66070571e+11
5.91000000e+02	6.58348334e+11
5.92000000e+02	6.50611186e+11
5.93000000e+02	6.42859029e+11
5.94000000e+02	6.35091838e+11
5.95000000e+02	6.27309658e+11
5.96000000e+02	6.19512612e+11
5.97000000e+02	6.11700905e+11
5.98000000e+02	6.03874826e+11
5.99000000e+02	5.96034750e+11
6.00000000e+02	5.88181144e+11
6.01000000e+02	5.80314566e+11
6.02000000e+02	5.72435670e+11
6.03000000e+02	5.64545209e+11
6.04000000e+02	5.56644031e+11
6.05000000e+02	5.48733088e+11
6.06000000e+02	5.40813430e+11
6.07000000e+02	5.32886210e+11
6.08000000e+02	5.24952686e+11
6.09000000e+02	5.17014212e+11
6.10000000e+02	5.09072248e+11
6.11000000e+02	5.01128352e+11
6.12000000e+02	4.93184184e+11
6.13000000e+02	4.85241498e+11
6.14000000e+02	4.77302142e+11
6.15000000e+02	4.69368057e+11
6.16000000e+02	4.61441272e+11
6.17000000e+02	4.53523904e+11
6.18000000e+02	4.45618152e+11
6.19000000e+02	4.37726292e+11
6.20000000e+02	4.29850669e+11
6.21000000e+02	4.21993694e+11
6.22000000e+02	4.14157852e+11
6.23000000e+02	4.06345676e+11
6.24000000e+02	3.98559737e+11
6.25000000e+02	3.90802669e+11
6.26000000e+02	3.83077133e+11
6.27000000e+02	3.75385792e+11
6.28000000e+02	3.67731366e+11
6.29000000e+02	3.60116618e+11
6.30000000e+02	3.52544227e+11
6.31000000e+02	3.45016920e+11
6.32000000e+02	3.37537497e+11
6.33000000e+02	3.30108537e+11
6.34000000e+02	3.22732723e+11
6.35000000e+02	3.15412661e+11
6.36000000e+02	3.08150991e+11
6.37000000e+02	3.00950251e+11
6.38000000e+02	2.93812845e+11
6.39000000e+02	2.86741221e+11
6.40000000e+02	2.79737767e+11
6.41000000e+02	2.72804615e+11
6.42000000e+02	2.65943899e+11
6.43000000e+02	2.59157826e+11
6.44000000e+02	2.52448128e+11
6.45000000e+02	2.45816784e+11
6.46000000e+02	2.39265494e+11
6.47000000e+02	2.32795725e+11
6.48000000e+02	2.26409148e+11
6.49000000e+02	2.20106852e+11
6.50000000e+02	2.13890253e+11
6.51000000e+02	2.07760231e+11
6.52000000e+02	2.01717805e+11
6.53000000e+02	1.95763718e+11
6.54000000e+02	1.89898564e+11
6.55000000e+02	1.84122893e+11
6.56000000e+02	1.78436932e+11
6.57000000e+02	1.72840980e+11
6.58000000e+02	1.67334941e+11
6.59000000e+02	1.61918854e+11
