# Profil de Te au temps 1.400000000000019e-11 
# simu : /Volumes/MERCURE/JOBS/Zeq2_tanh_50mic_2p1e19_B0_20ps/GNU/Te@y-c.set
# col 0 : abscisse (um)
# col 1 : Te (keV)
5.00000000e-01	9.90330476e-01
1.50000000e+00	9.90327625e-01
2.50000000e+00	9.90321964e-01
3.50000000e+00	9.90313475e-01
4.50000000e+00	9.90302144e-01
5.50000000e+00	9.90287979e-01
6.50000000e+00	9.90270981e-01
7.50000000e+00	9.90251148e-01
8.50000000e+00	9.90228480e-01
9.50000000e+00	9.90202977e-01
1.05000000e+01	9.90174637e-01
1.15000000e+01	9.90143461e-01
1.25000000e+01	9.90109447e-01
1.35000000e+01	9.90072594e-01
1.45000000e+01	9.90032902e-01
1.55000000e+01	9.89990369e-01
1.65000000e+01	9.89944994e-01
1.75000000e+01	9.89896776e-01
1.85000000e+01	9.89845715e-01
1.95000000e+01	9.89791807e-01
2.05000000e+01	9.89735053e-01
2.15000000e+01	9.89675450e-01
2.25000000e+01	9.89612997e-01
2.35000000e+01	9.89547692e-01
2.45000000e+01	9.89479534e-01
2.55000000e+01	9.89408522e-01
2.65000000e+01	9.89334652e-01
2.75000000e+01	9.89257924e-01
2.85000000e+01	9.89178334e-01
2.95000000e+01	9.89095883e-01
3.05000000e+01	9.89010566e-01
3.15000000e+01	9.88922383e-01
3.25000000e+01	9.88831330e-01
3.35000000e+01	9.88737407e-01
3.45000000e+01	9.88640609e-01
3.55000000e+01	9.88540936e-01
3.65000000e+01	9.88438384e-01
3.75000000e+01	9.88332952e-01
3.85000000e+01	9.88224636e-01
3.95000000e+01	9.88113434e-01
4.05000000e+01	9.87999343e-01
4.15000000e+01	9.87882361e-01
4.25000000e+01	9.87762485e-01
4.35000000e+01	9.87639712e-01
4.45000000e+01	9.87514039e-01
4.55000000e+01	9.87385464e-01
4.65000000e+01	9.87253984e-01
4.75000000e+01	9.87119595e-01
4.85000000e+01	9.86982295e-01
4.95000000e+01	9.86842080e-01
5.05000000e+01	9.86698948e-01
5.15000000e+01	9.86552895e-01
5.25000000e+01	9.86403918e-01
5.35000000e+01	9.86252015e-01
5.45000000e+01	9.86097181e-01
5.55000000e+01	9.85939414e-01
5.65000000e+01	9.85778710e-01
5.75000000e+01	9.85615066e-01
5.85000000e+01	9.85448478e-01
5.95000000e+01	9.85278944e-01
6.05000000e+01	9.85106460e-01
6.15000000e+01	9.84931022e-01
6.25000000e+01	9.84752628e-01
6.35000000e+01	9.84571273e-01
6.45000000e+01	9.84386954e-01
6.55000000e+01	9.84199668e-01
6.65000000e+01	9.84009410e-01
6.75000000e+01	9.83816179e-01
6.85000000e+01	9.83619970e-01
6.95000000e+01	9.83420779e-01
7.05000000e+01	9.83218604e-01
7.15000000e+01	9.83013440e-01
7.25000000e+01	9.82805284e-01
7.35000000e+01	9.82594132e-01
7.45000000e+01	9.82379982e-01
7.55000000e+01	9.82162828e-01
7.65000000e+01	9.81942669e-01
7.75000000e+01	9.81719499e-01
7.85000000e+01	9.81493316e-01
7.95000000e+01	9.81264117e-01
8.05000000e+01	9.81031897e-01
8.15000000e+01	9.80796653e-01
8.25000000e+01	9.80558381e-01
8.35000000e+01	9.80317079e-01
8.45000000e+01	9.80072742e-01
8.55000000e+01	9.79825367e-01
8.65000000e+01	9.79574950e-01
8.75000000e+01	9.79321489e-01
8.85000000e+01	9.79064980e-01
8.95000000e+01	9.78805418e-01
9.05000000e+01	9.78542802e-01
9.15000000e+01	9.78277127e-01
9.25000000e+01	9.78008391e-01
9.35000000e+01	9.77736589e-01
9.45000000e+01	9.77461719e-01
9.55000000e+01	9.77183778e-01
9.65000000e+01	9.76902761e-01
9.75000000e+01	9.76618667e-01
9.85000000e+01	9.76331491e-01
9.95000000e+01	9.76041231e-01
1.00500000e+02	9.75747884e-01
1.01500000e+02	9.75451446e-01
1.02500000e+02	9.75151915e-01
1.03500000e+02	9.74849288e-01
1.04500000e+02	9.74543561e-01
1.05500000e+02	9.74234732e-01
1.06500000e+02	9.73922798e-01
1.07500000e+02	9.73607756e-01
1.08500000e+02	9.73289603e-01
1.09500000e+02	9.72968337e-01
1.10500000e+02	9.72643956e-01
1.11500000e+02	9.72316455e-01
1.12500000e+02	9.71985834e-01
1.13500000e+02	9.71652089e-01
1.14500000e+02	9.71315218e-01
1.15500000e+02	9.70975218e-01
1.16500000e+02	9.70632088e-01
1.17500000e+02	9.70285825e-01
1.18500000e+02	9.69936426e-01
1.19500000e+02	9.69583890e-01
1.20500000e+02	9.69228215e-01
1.21500000e+02	9.68869398e-01
1.22500000e+02	9.68507437e-01
1.23500000e+02	9.68142331e-01
1.24500000e+02	9.67774077e-01
1.25500000e+02	9.67402675e-01
1.26500000e+02	9.67028121e-01
1.27500000e+02	9.66650415e-01
1.28500000e+02	9.66269555e-01
1.29500000e+02	9.65885539e-01
1.30500000e+02	9.65498366e-01
1.31500000e+02	9.65108035e-01
1.32500000e+02	9.64714544e-01
1.33500000e+02	9.64317892e-01
1.34500000e+02	9.63918077e-01
1.35500000e+02	9.63515099e-01
1.36500000e+02	9.63108957e-01
1.37500000e+02	9.62699650e-01
1.38500000e+02	9.62287176e-01
1.39500000e+02	9.61871535e-01
1.40500000e+02	9.61452727e-01
1.41500000e+02	9.61030750e-01
1.42500000e+02	9.60605604e-01
1.43500000e+02	9.60177289e-01
1.44500000e+02	9.59745803e-01
1.45500000e+02	9.59311148e-01
1.46500000e+02	9.58873322e-01
1.47500000e+02	9.58432325e-01
1.48500000e+02	9.57988157e-01
1.49500000e+02	9.57540818e-01
1.50500000e+02	9.57090309e-01
1.51500000e+02	9.56636629e-01
1.52500000e+02	9.56179778e-01
1.53500000e+02	9.55719757e-01
1.54500000e+02	9.55256566e-01
1.55500000e+02	9.54790206e-01
1.56500000e+02	9.54320677e-01
1.57500000e+02	9.53847979e-01
1.58500000e+02	9.53372114e-01
1.59500000e+02	9.52893083e-01
1.60500000e+02	9.52410885e-01
1.61500000e+02	9.51925522e-01
1.62500000e+02	9.51436996e-01
1.63500000e+02	9.50945307e-01
1.64500000e+02	9.50450456e-01
1.65500000e+02	9.49952445e-01
1.66500000e+02	9.49451274e-01
1.67500000e+02	9.48946947e-01
1.68500000e+02	9.48439463e-01
1.69500000e+02	9.47928825e-01
1.70500000e+02	9.47415035e-01
1.71500000e+02	9.46898093e-01
1.72500000e+02	9.46378003e-01
1.73500000e+02	9.45854765e-01
1.74500000e+02	9.45328383e-01
1.75500000e+02	9.44798858e-01
1.76500000e+02	9.44266192e-01
1.77500000e+02	9.43730387e-01
1.78500000e+02	9.43191447e-01
1.79500000e+02	9.42649373e-01
1.80500000e+02	9.42104168e-01
1.81500000e+02	9.41555835e-01
1.82500000e+02	9.41004376e-01
1.83500000e+02	9.40449795e-01
1.84500000e+02	9.39892093e-01
1.85500000e+02	9.39331274e-01
1.86500000e+02	9.38767342e-01
1.87500000e+02	9.38200298e-01
1.88500000e+02	9.37630146e-01
1.89500000e+02	9.37056891e-01
1.90500000e+02	9.36480534e-01
1.91500000e+02	9.35901079e-01
1.92500000e+02	9.35318531e-01
1.93500000e+02	9.34732892e-01
1.94500000e+02	9.34144166e-01
1.95500000e+02	9.33552356e-01
1.96500000e+02	9.32957468e-01
1.97500000e+02	9.32359504e-01
1.98500000e+02	9.31758468e-01
1.99500000e+02	9.31154366e-01
2.00500000e+02	9.30547199e-01
2.01500000e+02	9.29936974e-01
2.02500000e+02	9.29323693e-01
2.03500000e+02	9.28707362e-01
2.04500000e+02	9.28087985e-01
2.05500000e+02	9.27465566e-01
2.06500000e+02	9.26840110e-01
2.07500000e+02	9.26211620e-01
2.08500000e+02	9.25580103e-01
2.09500000e+02	9.24945563e-01
2.10500000e+02	9.24308004e-01
2.11500000e+02	9.23667431e-01
2.12500000e+02	9.23023850e-01
2.13500000e+02	9.22377265e-01
2.14500000e+02	9.21727681e-01
2.15500000e+02	9.21075103e-01
2.16500000e+02	9.20419536e-01
2.17500000e+02	9.19760985e-01
2.18500000e+02	9.19099457e-01
2.19500000e+02	9.18434955e-01
2.20500000e+02	9.17767485e-01
2.21500000e+02	9.17097052e-01
2.22500000e+02	9.16423662e-01
2.23500000e+02	9.15747320e-01
2.24500000e+02	9.15068032e-01
2.25500000e+02	9.14385803e-01
2.26500000e+02	9.13700638e-01
2.27500000e+02	9.13012543e-01
2.28500000e+02	9.12321524e-01
2.29500000e+02	9.11627586e-01
2.30500000e+02	9.10930734e-01
2.31500000e+02	9.10230974e-01
2.32500000e+02	9.09528312e-01
2.33500000e+02	9.08822754e-01
2.34500000e+02	9.08114304e-01
2.35500000e+02	9.07402968e-01
2.36500000e+02	9.06688752e-01
2.37500000e+02	9.05971662e-01
2.38500000e+02	9.05251702e-01
2.39500000e+02	9.04528880e-01
2.40500000e+02	9.03803199e-01
2.41500000e+02	9.03074665e-01
2.42500000e+02	9.02343284e-01
2.43500000e+02	9.01609061e-01
2.44500000e+02	9.00872002e-01
2.45500000e+02	9.00132112e-01
2.46500000e+02	8.99389395e-01
2.47500000e+02	8.98643858e-01
2.48500000e+02	8.97895504e-01
2.49500000e+02	8.97144340e-01
2.50500000e+02	8.96390370e-01
2.51500000e+02	8.95633598e-01
2.52500000e+02	8.94874030e-01
2.53500000e+02	8.94111670e-01
2.54500000e+02	8.93346523e-01
2.55500000e+02	8.92578592e-01
2.56500000e+02	8.91807882e-01
2.57500000e+02	8.91034398e-01
2.58500000e+02	8.90258142e-01
2.59500000e+02	8.89479119e-01
2.60500000e+02	8.88697332e-01
2.61500000e+02	8.87912785e-01
2.62500000e+02	8.87125480e-01
2.63500000e+02	8.86335421e-01
2.64500000e+02	8.85542610e-01
2.65500000e+02	8.84747050e-01
2.66500000e+02	8.83948743e-01
2.67500000e+02	8.83147691e-01
2.68500000e+02	8.82343896e-01
2.69500000e+02	8.81537359e-01
2.70500000e+02	8.80728082e-01
2.71500000e+02	8.79916064e-01
2.72500000e+02	8.79101307e-01
2.73500000e+02	8.78283811e-01
2.74500000e+02	8.77463575e-01
2.75500000e+02	8.76640599e-01
2.76500000e+02	8.75814882e-01
2.77500000e+02	8.74986423e-01
2.78500000e+02	8.74155219e-01
2.79500000e+02	8.73321268e-01
2.80500000e+02	8.72484567e-01
2.81500000e+02	8.71645114e-01
2.82500000e+02	8.70802904e-01
2.83500000e+02	8.69957933e-01
2.84500000e+02	8.69110195e-01
2.85500000e+02	8.68259687e-01
2.86500000e+02	8.67406401e-01
2.87500000e+02	8.66550330e-01
2.88500000e+02	8.65691468e-01
2.89500000e+02	8.64829805e-01
2.90500000e+02	8.63965335e-01
2.91500000e+02	8.63098046e-01
2.92500000e+02	8.62227929e-01
2.93500000e+02	8.61354972e-01
2.94500000e+02	8.60479164e-01
2.95500000e+02	8.59600491e-01
2.96500000e+02	8.58718941e-01
2.97500000e+02	8.57834499e-01
2.98500000e+02	8.56947149e-01
2.99500000e+02	8.56056874e-01
3.00500000e+02	8.55163658e-01
3.01500000e+02	8.54267481e-01
3.02500000e+02	8.53368325e-01
3.03500000e+02	8.52466168e-01
3.04500000e+02	8.51560989e-01
3.05500000e+02	8.50652764e-01
3.06500000e+02	8.49741470e-01
3.07500000e+02	8.48827080e-01
3.08500000e+02	8.47909569e-01
3.09500000e+02	8.46988907e-01
3.10500000e+02	8.46065066e-01
3.11500000e+02	8.45138014e-01
3.12500000e+02	8.44207719e-01
3.13500000e+02	8.43274147e-01
3.14500000e+02	8.42337263e-01
3.15500000e+02	8.41397030e-01
3.16500000e+02	8.40453409e-01
3.17500000e+02	8.39506359e-01
3.18500000e+02	8.38555840e-01
3.19500000e+02	8.37601807e-01
3.20500000e+02	8.36644215e-01
3.21500000e+02	8.35683017e-01
3.22500000e+02	8.34718162e-01
3.23500000e+02	8.33749601e-01
3.24500000e+02	8.32777280e-01
3.25500000e+02	8.31801145e-01
3.26500000e+02	8.30821137e-01
3.27500000e+02	8.29837198e-01
3.28500000e+02	8.28849267e-01
3.29500000e+02	8.27857280e-01
3.30500000e+02	8.26861172e-01
3.31500000e+02	8.25860875e-01
3.32500000e+02	8.24856318e-01
3.33500000e+02	8.23847429e-01
3.34500000e+02	8.22834134e-01
3.35500000e+02	8.21816355e-01
3.36500000e+02	8.20794013e-01
3.37500000e+02	8.19767025e-01
3.38500000e+02	8.18735307e-01
3.39500000e+02	8.17698773e-01
3.40500000e+02	8.16657331e-01
3.41500000e+02	8.15610891e-01
3.42500000e+02	8.14559357e-01
3.43500000e+02	8.13502633e-01
3.44500000e+02	8.12440617e-01
3.45500000e+02	8.11373208e-01
3.46500000e+02	8.10300299e-01
3.47500000e+02	8.09221784e-01
3.48500000e+02	8.08137550e-01
3.49500000e+02	8.07047486e-01
3.50500000e+02	8.05951474e-01
3.51500000e+02	8.04849395e-01
3.52500000e+02	8.03741129e-01
3.53500000e+02	8.02626550e-01
3.54500000e+02	8.01505532e-01
3.55500000e+02	8.00377944e-01
3.56500000e+02	7.99243655e-01
3.57500000e+02	7.98102529e-01
3.58500000e+02	7.96954429e-01
3.59500000e+02	7.95799213e-01
3.60500000e+02	7.94636740e-01
3.61500000e+02	7.93466864e-01
3.62500000e+02	7.92289435e-01
3.63500000e+02	7.91104305e-01
3.64500000e+02	7.89911319e-01
3.65500000e+02	7.88710323e-01
3.66500000e+02	7.87501159e-01
3.67500000e+02	7.86283666e-01
3.68500000e+02	7.85057682e-01
3.69500000e+02	7.83823044e-01
3.70500000e+02	7.82579584e-01
3.71500000e+02	7.81327133e-01
3.72500000e+02	7.80065523e-01
3.73500000e+02	7.78794580e-01
3.74500000e+02	7.77514130e-01
3.75500000e+02	7.76223997e-01
3.76500000e+02	7.74924005e-01
3.77500000e+02	7.73613975e-01
3.78500000e+02	7.72293727e-01
3.79500000e+02	7.70963079e-01
3.80500000e+02	7.69621849e-01
3.81500000e+02	7.68269853e-01
3.82500000e+02	7.66906908e-01
3.83500000e+02	7.65532829e-01
3.84500000e+02	7.64147429e-01
3.85500000e+02	7.62750522e-01
3.86500000e+02	7.61341923e-01
3.87500000e+02	7.59921444e-01
3.88500000e+02	7.58488898e-01
3.89500000e+02	7.57044099e-01
3.90500000e+02	7.55586861e-01
3.91500000e+02	7.54116996e-01
3.92500000e+02	7.52634320e-01
3.93500000e+02	7.51138648e-01
3.94500000e+02	7.49629795e-01
3.95500000e+02	7.48107579e-01
3.96500000e+02	7.46571818e-01
3.97500000e+02	7.45022330e-01
3.98500000e+02	7.43458938e-01
3.99500000e+02	7.41881464e-01
4.00500000e+02	7.40289733e-01
4.01500000e+02	7.38683570e-01
4.02500000e+02	7.37062805e-01
4.03500000e+02	7.35427270e-01
4.04500000e+02	7.33776797e-01
4.05500000e+02	7.32111224e-01
4.06500000e+02	7.30430390e-01
4.07500000e+02	7.28734138e-01
4.08500000e+02	7.27022313e-01
4.09500000e+02	7.25294766e-01
4.10500000e+02	7.23551350e-01
4.11500000e+02	7.21791921e-01
4.12500000e+02	7.20016342e-01
4.13500000e+02	7.18224477e-01
4.14500000e+02	7.16416197e-01
4.15500000e+02	7.14591377e-01
4.16500000e+02	7.12749896e-01
4.17500000e+02	7.10891640e-01
4.18500000e+02	7.09016497e-01
4.19500000e+02	7.07124365e-01
4.20500000e+02	7.05215145e-01
4.21500000e+02	7.03288743e-01
4.22500000e+02	7.01345073e-01
4.23500000e+02	6.99384056e-01
4.24500000e+02	6.97405616e-01
4.25500000e+02	6.95409687e-01
4.26500000e+02	6.93396210e-01
4.27500000e+02	6.91365130e-01
4.28500000e+02	6.89316403e-01
4.29500000e+02	6.87249989e-01
4.30500000e+02	6.85165858e-01
4.31500000e+02	6.83063988e-01
4.32500000e+02	6.80944363e-01
4.33500000e+02	6.78806977e-01
4.34500000e+02	6.76651831e-01
4.35500000e+02	6.74478936e-01
4.36500000e+02	6.72288309e-01
4.37500000e+02	6.70079980e-01
4.38500000e+02	6.67853982e-01
4.39500000e+02	6.65610363e-01
4.40500000e+02	6.63349175e-01
4.41500000e+02	6.61070483e-01
4.42500000e+02	6.58774359e-01
4.43500000e+02	6.56460885e-01
4.44500000e+02	6.54130152e-01
4.45500000e+02	6.51782260e-01
4.46500000e+02	6.49417319e-01
4.47500000e+02	6.47035450e-01
4.48500000e+02	6.44636779e-01
4.49500000e+02	6.42221446e-01
4.50500000e+02	6.39789597e-01
4.51500000e+02	6.37341389e-01
4.52500000e+02	6.34876988e-01
4.53500000e+02	6.32396567e-01
4.54500000e+02	6.29900311e-01
4.55500000e+02	6.27388412e-01
4.56500000e+02	6.24861071e-01
4.57500000e+02	6.22318496e-01
4.58500000e+02	6.19760906e-01
4.59500000e+02	6.17188526e-01
4.60500000e+02	6.14601590e-01
4.61500000e+02	6.12000338e-01
4.62500000e+02	6.09385019e-01
4.63500000e+02	6.06755888e-01
4.64500000e+02	6.04113207e-01
4.65500000e+02	6.01457245e-01
4.66500000e+02	5.98788277e-01
4.67500000e+02	5.96106583e-01
4.68500000e+02	5.93412449e-01
4.69500000e+02	5.90706168e-01
4.70500000e+02	5.87988035e-01
4.71500000e+02	5.85258351e-01
4.72500000e+02	5.82517421e-01
4.73500000e+02	5.79765554e-01
4.74500000e+02	5.77003063e-01
4.75500000e+02	5.74230264e-01
4.76500000e+02	5.71447474e-01
4.77500000e+02	5.68655017e-01
4.78500000e+02	5.65853214e-01
4.79500000e+02	5.63042392e-01
4.80500000e+02	5.60222879e-01
4.81500000e+02	5.57395003e-01
4.82500000e+02	5.54559094e-01
4.83500000e+02	5.51715484e-01
4.84500000e+02	5.48864505e-01
4.85500000e+02	5.46006490e-01
4.86500000e+02	5.43141773e-01
4.87500000e+02	5.40270687e-01
4.88500000e+02	5.37393567e-01
4.89500000e+02	5.34510748e-01
4.90500000e+02	5.31622565e-01
4.91500000e+02	5.28729354e-01
4.92500000e+02	5.25831449e-01
4.93500000e+02	5.22929188e-01
4.94500000e+02	5.20022908e-01
4.95500000e+02	5.17112945e-01
4.96500000e+02	5.14199639e-01
4.97500000e+02	5.11283328e-01
4.98500000e+02	5.08364353e-01
4.99500000e+02	5.05443057e-01
5.00500000e+02	5.02519782e-01
5.01500000e+02	4.99594876e-01
5.02500000e+02	4.96668685e-01
5.03500000e+02	4.93741562e-01
5.04500000e+02	4.90813859e-01
5.05500000e+02	4.87885934e-01
5.06500000e+02	4.84958147e-01
5.07500000e+02	4.82030865e-01
5.08500000e+02	4.79104455e-01
5.09500000e+02	4.76179292e-01
5.10500000e+02	4.73255756e-01
5.11500000e+02	4.70334231e-01
5.12500000e+02	4.67415107e-01
5.13500000e+02	4.64498782e-01
5.14500000e+02	4.61585659e-01
5.15500000e+02	4.58676147e-01
5.16500000e+02	4.55770663e-01
5.17500000e+02	4.52869631e-01
5.18500000e+02	4.49973483e-01
5.19500000e+02	4.47082658e-01
5.20500000e+02	4.44197602e-01
5.21500000e+02	4.41318768e-01
5.22500000e+02	4.38446619e-01
5.23500000e+02	4.35581624e-01
5.24500000e+02	4.32724258e-01
5.25500000e+02	4.29875008e-01
5.26500000e+02	4.27034362e-01
5.27500000e+02	4.24202819e-01
5.28500000e+02	4.21380884e-01
5.29500000e+02	4.18569065e-01
5.30500000e+02	4.15767879e-01
5.31500000e+02	4.12977846e-01
5.32500000e+02	4.10199492e-01
5.33500000e+02	4.07433344e-01
5.34500000e+02	4.04679935e-01
5.35500000e+02	4.01939798e-01
5.36500000e+02	3.99213468e-01
5.37500000e+02	3.96501482e-01
5.38500000e+02	3.93804374e-01
5.39500000e+02	3.91122678e-01
5.40500000e+02	3.88456925e-01
5.41500000e+02	3.85807644e-01
5.42500000e+02	3.83175357e-01
5.43500000e+02	3.80560581e-01
5.44500000e+02	3.77963829e-01
5.45500000e+02	3.75385601e-01
5.46500000e+02	3.72826393e-01
5.47500000e+02	3.70286687e-01
5.48500000e+02	3.67766956e-01
5.49500000e+02	3.65267659e-01
5.50500000e+02	3.62789243e-01
5.51500000e+02	3.60332140e-01
5.52500000e+02	3.57896765e-01
5.53500000e+02	3.55483520e-01
5.54500000e+02	3.53092785e-01
5.55500000e+02	3.50724925e-01
5.56500000e+02	3.48380286e-01
5.57500000e+02	3.46059194e-01
5.58500000e+02	3.43761953e-01
5.59500000e+02	3.41488847e-01
5.60500000e+02	3.39240141e-01
5.61500000e+02	3.37016075e-01
5.62500000e+02	3.34816869e-01
5.63500000e+02	3.32642720e-01
5.64500000e+02	3.30493802e-01
5.65500000e+02	3.28370267e-01
5.66500000e+02	3.26272246e-01
5.67500000e+02	3.24199845e-01
5.68500000e+02	3.22153150e-01
5.69500000e+02	3.20132225e-01
5.70500000e+02	3.18137112e-01
5.71500000e+02	3.16167831e-01
5.72500000e+02	3.14224382e-01
5.73500000e+02	3.12306747e-01
5.74500000e+02	3.10414886e-01
5.75500000e+02	3.08548740e-01
5.76500000e+02	3.06708235e-01
5.77500000e+02	3.04893275e-01
5.78500000e+02	3.03103752e-01
5.79500000e+02	3.01339539e-01
5.80500000e+02	2.99600495e-01
5.81500000e+02	2.97886465e-01
5.82500000e+02	2.96197280e-01
5.83500000e+02	2.94532760e-01
5.84500000e+02	2.92892711e-01
5.85500000e+02	2.91276930e-01
5.86500000e+02	2.89685203e-01
5.87500000e+02	2.88117308e-01
5.88500000e+02	2.86573013e-01
5.89500000e+02	2.85052081e-01
5.90500000e+02	2.83554265e-01
5.91500000e+02	2.82079313e-01
5.92500000e+02	2.80626969e-01
5.93500000e+02	2.79196972e-01
5.94500000e+02	2.77789056e-01
5.95500000e+02	2.76402952e-01
5.96500000e+02	2.75038388e-01
5.97500000e+02	2.73695092e-01
5.98500000e+02	2.72372787e-01
5.99500000e+02	2.71071197e-01
6.00500000e+02	2.69790046e-01
6.01500000e+02	2.68529057e-01
6.02500000e+02	2.67287951e-01
6.03500000e+02	2.66066454e-01
6.04500000e+02	2.64864290e-01
6.05500000e+02	2.63681186e-01
6.06500000e+02	2.62516870e-01
6.07500000e+02	2.61371072e-01
6.08500000e+02	2.60243524e-01
6.09500000e+02	2.59133962e-01
6.10500000e+02	2.58042124e-01
6.11500000e+02	2.56967750e-01
6.12500000e+02	2.55910584e-01
6.13500000e+02	2.54870374e-01
6.14500000e+02	2.53846871e-01
6.15500000e+02	2.52839831e-01
6.16500000e+02	2.51849012e-01
6.17500000e+02	2.50874177e-01
6.18500000e+02	2.49915094e-01
6.19500000e+02	2.48971534e-01
6.20500000e+02	2.48043273e-01
6.21500000e+02	2.47130091e-01
6.22500000e+02	2.46231775e-01
6.23500000e+02	2.45348114e-01
6.24500000e+02	2.44478902e-01
6.25500000e+02	2.43623940e-01
6.26500000e+02	2.42783032e-01
6.27500000e+02	2.41955988e-01
6.28500000e+02	2.41142622e-01
6.29500000e+02	2.40342756e-01
6.30500000e+02	2.39556214e-01
6.31500000e+02	2.38782828e-01
6.32500000e+02	2.38022433e-01
6.33500000e+02	2.37274870e-01
6.34500000e+02	2.36539988e-01
6.35500000e+02	2.35817637e-01
6.36500000e+02	2.35107678e-01
6.37500000e+02	2.34409973e-01
6.38500000e+02	2.33724391e-01
6.39500000e+02	2.33050808e-01
6.40500000e+02	2.32389105e-01
6.41500000e+02	2.31739168e-01
6.42500000e+02	2.31100888e-01
6.43500000e+02	2.30474162e-01
6.44500000e+02	2.29858894e-01
6.45500000e+02	2.29254993e-01
6.46500000e+02	2.28662373e-01
6.47500000e+02	2.28080955e-01
6.48500000e+02	2.27510664e-01
6.49500000e+02	2.26951429e-01
6.50500000e+02	2.26403189e-01
6.51500000e+02	2.25865886e-01
6.52500000e+02	2.25339465e-01
6.53500000e+02	2.24823879e-01
6.54500000e+02	2.24319087e-01
6.55500000e+02	2.23825048e-01
6.56500000e+02	2.23341733e-01
6.57500000e+02	2.22869112e-01
6.58500000e+02	2.22407163e-01
6.59500000e+02	2.21955867e-01
6.60500000e+02	2.21515210e-01
