# Profil de Te au temps 4.000000000000029e-12 
# simu : /Volumes/MERCURE/JOBS/Zeq2_tanh_50mic_2p1e19_B0_20ps/GNU/Te@y-c.set
# col 0 : abscisse (um)
# col 1 : Te (keV)
5.00000000e-01	9.99999693e-01
1.50000000e+00	9.99999689e-01
2.50000000e+00	9.99999690e-01
3.50000000e+00	9.99999691e-01
4.50000000e+00	9.99999689e-01
5.50000000e+00	9.99999687e-01
6.50000000e+00	9.99999684e-01
7.50000000e+00	9.99999681e-01
8.50000000e+00	9.99999677e-01
9.50000000e+00	9.99999672e-01
1.05000000e+01	9.99999667e-01
1.15000000e+01	9.99999662e-01
1.25000000e+01	9.99999655e-01
1.35000000e+01	9.99999648e-01
1.45000000e+01	9.99999641e-01
1.55000000e+01	9.99999633e-01
1.65000000e+01	9.99999624e-01
1.75000000e+01	9.99999615e-01
1.85000000e+01	9.99999605e-01
1.95000000e+01	9.99999594e-01
2.05000000e+01	9.99999582e-01
2.15000000e+01	9.99999570e-01
2.25000000e+01	9.99999557e-01
2.35000000e+01	9.99999544e-01
2.45000000e+01	9.99999529e-01
2.55000000e+01	9.99999514e-01
2.65000000e+01	9.99999498e-01
2.75000000e+01	9.99999482e-01
2.85000000e+01	9.99999464e-01
2.95000000e+01	9.99999446e-01
3.05000000e+01	9.99999427e-01
3.15000000e+01	9.99999406e-01
3.25000000e+01	9.99999385e-01
3.35000000e+01	9.99999363e-01
3.45000000e+01	9.99999340e-01
3.55000000e+01	9.99999315e-01
3.65000000e+01	9.99999290e-01
3.75000000e+01	9.99999263e-01
3.85000000e+01	9.99999235e-01
3.95000000e+01	9.99999206e-01
4.05000000e+01	9.99999175e-01
4.15000000e+01	9.99999143e-01
4.25000000e+01	9.99999110e-01
4.35000000e+01	9.99999075e-01
4.45000000e+01	9.99999039e-01
4.55000000e+01	9.99999001e-01
4.65000000e+01	9.99998962e-01
4.75000000e+01	9.99998921e-01
4.85000000e+01	9.99998879e-01
4.95000000e+01	9.99998834e-01
5.05000000e+01	9.99998788e-01
5.15000000e+01	9.99998740e-01
5.25000000e+01	9.99998690e-01
5.35000000e+01	9.99998637e-01
5.45000000e+01	9.99998583e-01
5.55000000e+01	9.99998526e-01
5.65000000e+01	9.99998467e-01
5.75000000e+01	9.99998405e-01
5.85000000e+01	9.99998341e-01
5.95000000e+01	9.99998275e-01
6.05000000e+01	9.99998205e-01
6.15000000e+01	9.99998133e-01
6.25000000e+01	9.99998057e-01
6.35000000e+01	9.99997979e-01
6.45000000e+01	9.99997897e-01
6.55000000e+01	9.99997812e-01
6.65000000e+01	9.99997723e-01
6.75000000e+01	9.99997631e-01
6.85000000e+01	9.99997535e-01
6.95000000e+01	9.99997435e-01
7.05000000e+01	9.99997331e-01
7.15000000e+01	9.99997222e-01
7.25000000e+01	9.99997110e-01
7.35000000e+01	9.99996992e-01
7.45000000e+01	9.99996870e-01
7.55000000e+01	9.99996743e-01
7.65000000e+01	9.99996610e-01
7.75000000e+01	9.99996472e-01
7.85000000e+01	9.99996329e-01
7.95000000e+01	9.99996179e-01
8.05000000e+01	9.99996024e-01
8.15000000e+01	9.99995862e-01
8.25000000e+01	9.99995694e-01
8.35000000e+01	9.99995518e-01
8.45000000e+01	9.99995336e-01
8.55000000e+01	9.99995146e-01
8.65000000e+01	9.99994948e-01
8.75000000e+01	9.99994742e-01
8.85000000e+01	9.99994528e-01
8.95000000e+01	9.99994305e-01
9.05000000e+01	9.99994073e-01
9.15000000e+01	9.99993832e-01
9.25000000e+01	9.99993580e-01
9.35000000e+01	9.99993319e-01
9.45000000e+01	9.99993046e-01
9.55000000e+01	9.99992763e-01
9.65000000e+01	9.99992468e-01
9.75000000e+01	9.99992161e-01
9.85000000e+01	9.99991841e-01
9.95000000e+01	9.99991509e-01
1.00500000e+02	9.99991162e-01
1.01500000e+02	9.99990802e-01
1.02500000e+02	9.99990427e-01
1.03500000e+02	9.99990037e-01
1.04500000e+02	9.99989630e-01
1.05500000e+02	9.99989207e-01
1.06500000e+02	9.99988767e-01
1.07500000e+02	9.99988309e-01
1.08500000e+02	9.99987832e-01
1.09500000e+02	9.99987336e-01
1.10500000e+02	9.99986820e-01
1.11500000e+02	9.99986282e-01
1.12500000e+02	9.99985723e-01
1.13500000e+02	9.99985141e-01
1.14500000e+02	9.99984535e-01
1.15500000e+02	9.99983904e-01
1.16500000e+02	9.99983248e-01
1.17500000e+02	9.99982564e-01
1.18500000e+02	9.99981853e-01
1.19500000e+02	9.99981113e-01
1.20500000e+02	9.99980343e-01
1.21500000e+02	9.99979542e-01
1.22500000e+02	9.99978707e-01
1.23500000e+02	9.99977839e-01
1.24500000e+02	9.99976936e-01
1.25500000e+02	9.99975995e-01
1.26500000e+02	9.99975017e-01
1.27500000e+02	9.99973998e-01
1.28500000e+02	9.99972938e-01
1.29500000e+02	9.99971835e-01
1.30500000e+02	9.99970687e-01
1.31500000e+02	9.99969492e-01
1.32500000e+02	9.99968248e-01
1.33500000e+02	9.99966954e-01
1.34500000e+02	9.99965607e-01
1.35500000e+02	9.99964205e-01
1.36500000e+02	9.99962746e-01
1.37500000e+02	9.99961228e-01
1.38500000e+02	9.99959648e-01
1.39500000e+02	9.99958004e-01
1.40500000e+02	9.99956293e-01
1.41500000e+02	9.99954512e-01
1.42500000e+02	9.99952659e-01
1.43500000e+02	9.99950730e-01
1.44500000e+02	9.99948723e-01
1.45500000e+02	9.99946635e-01
1.46500000e+02	9.99944461e-01
1.47500000e+02	9.99942199e-01
1.48500000e+02	9.99939846e-01
1.49500000e+02	9.99937396e-01
1.50500000e+02	9.99934847e-01
1.51500000e+02	9.99932195e-01
1.52500000e+02	9.99929435e-01
1.53500000e+02	9.99926562e-01
1.54500000e+02	9.99923573e-01
1.55500000e+02	9.99920463e-01
1.56500000e+02	9.99917227e-01
1.57500000e+02	9.99913859e-01
1.58500000e+02	9.99910355e-01
1.59500000e+02	9.99906709e-01
1.60500000e+02	9.99902915e-01
1.61500000e+02	9.99898967e-01
1.62500000e+02	9.99894859e-01
1.63500000e+02	9.99890585e-01
1.64500000e+02	9.99886137e-01
1.65500000e+02	9.99881510e-01
1.66500000e+02	9.99876695e-01
1.67500000e+02	9.99871686e-01
1.68500000e+02	9.99866474e-01
1.69500000e+02	9.99861051e-01
1.70500000e+02	9.99855409e-01
1.71500000e+02	9.99849540e-01
1.72500000e+02	9.99843433e-01
1.73500000e+02	9.99837080e-01
1.74500000e+02	9.99830470e-01
1.75500000e+02	9.99823594e-01
1.76500000e+02	9.99816441e-01
1.77500000e+02	9.99808999e-01
1.78500000e+02	9.99801258e-01
1.79500000e+02	9.99793205e-01
1.80500000e+02	9.99784828e-01
1.81500000e+02	9.99776115e-01
1.82500000e+02	9.99767051e-01
1.83500000e+02	9.99757623e-01
1.84500000e+02	9.99747817e-01
1.85500000e+02	9.99737617e-01
1.86500000e+02	9.99727009e-01
1.87500000e+02	9.99715976e-01
1.88500000e+02	9.99704501e-01
1.89500000e+02	9.99692567e-01
1.90500000e+02	9.99680155e-01
1.91500000e+02	9.99667249e-01
1.92500000e+02	9.99653827e-01
1.93500000e+02	9.99639869e-01
1.94500000e+02	9.99625356e-01
1.95500000e+02	9.99610265e-01
1.96500000e+02	9.99594573e-01
1.97500000e+02	9.99578258e-01
1.98500000e+02	9.99561295e-01
1.99500000e+02	9.99543660e-01
2.00500000e+02	9.99525326e-01
2.01500000e+02	9.99506266e-01
2.02500000e+02	9.99486452e-01
2.03500000e+02	9.99465856e-01
2.04500000e+02	9.99444448e-01
2.05500000e+02	9.99422196e-01
2.06500000e+02	9.99399069e-01
2.07500000e+02	9.99375032e-01
2.08500000e+02	9.99350052e-01
2.09500000e+02	9.99324093e-01
2.10500000e+02	9.99297118e-01
2.11500000e+02	9.99269088e-01
2.12500000e+02	9.99239964e-01
2.13500000e+02	9.99209705e-01
2.14500000e+02	9.99178269e-01
2.15500000e+02	9.99145611e-01
2.16500000e+02	9.99111686e-01
2.17500000e+02	9.99076448e-01
2.18500000e+02	9.99039848e-01
2.19500000e+02	9.99001835e-01
2.20500000e+02	9.98962357e-01
2.21500000e+02	9.98921362e-01
2.22500000e+02	9.98878794e-01
2.23500000e+02	9.98834595e-01
2.24500000e+02	9.98788707e-01
2.25500000e+02	9.98741068e-01
2.26500000e+02	9.98691616e-01
2.27500000e+02	9.98640286e-01
2.28500000e+02	9.98587011e-01
2.29500000e+02	9.98531721e-01
2.30500000e+02	9.98474345e-01
2.31500000e+02	9.98414811e-01
2.32500000e+02	9.98353041e-01
2.33500000e+02	9.98288958e-01
2.34500000e+02	9.98222482e-01
2.35500000e+02	9.98153529e-01
2.36500000e+02	9.98082014e-01
2.37500000e+02	9.98007849e-01
2.38500000e+02	9.97930945e-01
2.39500000e+02	9.97851207e-01
2.40500000e+02	9.97768540e-01
2.41500000e+02	9.97682845e-01
2.42500000e+02	9.97594022e-01
2.43500000e+02	9.97501966e-01
2.44500000e+02	9.97406570e-01
2.45500000e+02	9.97307725e-01
2.46500000e+02	9.97205316e-01
2.47500000e+02	9.97099230e-01
2.48500000e+02	9.96989346e-01
2.49500000e+02	9.96875544e-01
2.50500000e+02	9.96757696e-01
2.51500000e+02	9.96635677e-01
2.52500000e+02	9.96509353e-01
2.53500000e+02	9.96378590e-01
2.54500000e+02	9.96243250e-01
2.55500000e+02	9.96103193e-01
2.56500000e+02	9.95958272e-01
2.57500000e+02	9.95808340e-01
2.58500000e+02	9.95653246e-01
2.59500000e+02	9.95492835e-01
2.60500000e+02	9.95326947e-01
2.61500000e+02	9.95155423e-01
2.62500000e+02	9.94978096e-01
2.63500000e+02	9.94794797e-01
2.64500000e+02	9.94605355e-01
2.65500000e+02	9.94409593e-01
2.66500000e+02	9.94207332e-01
2.67500000e+02	9.93998390e-01
2.68500000e+02	9.93782579e-01
2.69500000e+02	9.93559711e-01
2.70500000e+02	9.93329592e-01
2.71500000e+02	9.93092026e-01
2.72500000e+02	9.92846811e-01
2.73500000e+02	9.92593744e-01
2.74500000e+02	9.92332619e-01
2.75500000e+02	9.92063225e-01
2.76500000e+02	9.91785347e-01
2.77500000e+02	9.91498769e-01
2.78500000e+02	9.91203270e-01
2.79500000e+02	9.90898627e-01
2.80500000e+02	9.90584613e-01
2.81500000e+02	9.90260998e-01
2.82500000e+02	9.89927548e-01
2.83500000e+02	9.89584028e-01
2.84500000e+02	9.89230200e-01
2.85500000e+02	9.88865820e-01
2.86500000e+02	9.88490644e-01
2.87500000e+02	9.88104426e-01
2.88500000e+02	9.87706914e-01
2.89500000e+02	9.87297858e-01
2.90500000e+02	9.86877000e-01
2.91500000e+02	9.86444085e-01
2.92500000e+02	9.85998853e-01
2.93500000e+02	9.85541042e-01
2.94500000e+02	9.85070388e-01
2.95500000e+02	9.84586626e-01
2.96500000e+02	9.84089487e-01
2.97500000e+02	9.83578703e-01
2.98500000e+02	9.83054003e-01
2.99500000e+02	9.82515115e-01
3.00500000e+02	9.81961764e-01
3.01500000e+02	9.81393677e-01
3.02500000e+02	9.80810576e-01
3.03500000e+02	9.80212186e-01
3.04500000e+02	9.79598229e-01
3.05500000e+02	9.78968426e-01
3.06500000e+02	9.78322498e-01
3.07500000e+02	9.77660166e-01
3.08500000e+02	9.76981151e-01
3.09500000e+02	9.76285173e-01
3.10500000e+02	9.75571952e-01
3.11500000e+02	9.74841209e-01
3.12500000e+02	9.74092664e-01
3.13500000e+02	9.73326040e-01
3.14500000e+02	9.72541059e-01
3.15500000e+02	9.71737442e-01
3.16500000e+02	9.70914914e-01
3.17500000e+02	9.70073200e-01
3.18500000e+02	9.69212026e-01
3.19500000e+02	9.68331118e-01
3.20500000e+02	9.67430206e-01
3.21500000e+02	9.66509020e-01
3.22500000e+02	9.65567293e-01
3.23500000e+02	9.64604759e-01
3.24500000e+02	9.63621153e-01
3.25500000e+02	9.62616215e-01
3.26500000e+02	9.61589684e-01
3.27500000e+02	9.60541304e-01
3.28500000e+02	9.59470821e-01
3.29500000e+02	9.58377983e-01
3.30500000e+02	9.57262542e-01
3.31500000e+02	9.56124250e-01
3.32500000e+02	9.54962865e-01
3.33500000e+02	9.53778148e-01
3.34500000e+02	9.52569862e-01
3.35500000e+02	9.51337773e-01
3.36500000e+02	9.50081652e-01
3.37500000e+02	9.48801272e-01
3.38500000e+02	9.47496411e-01
3.39500000e+02	9.46166849e-01
3.40500000e+02	9.44812371e-01
3.41500000e+02	9.43432766e-01
3.42500000e+02	9.42027825e-01
3.43500000e+02	9.40597346e-01
3.44500000e+02	9.39141127e-01
3.45500000e+02	9.37658975e-01
3.46500000e+02	9.36150696e-01
3.47500000e+02	9.34616104e-01
3.48500000e+02	9.33055015e-01
3.49500000e+02	9.31467249e-01
3.50500000e+02	9.29852633e-01
3.51500000e+02	9.28210996e-01
3.52500000e+02	9.26542170e-01
3.53500000e+02	9.24845994e-01
3.54500000e+02	9.23122310e-01
3.55500000e+02	9.21370964e-01
3.56500000e+02	9.19591808e-01
3.57500000e+02	9.17784695e-01
3.58500000e+02	9.15949485e-01
3.59500000e+02	9.14086041e-01
3.60500000e+02	9.12194231e-01
3.61500000e+02	9.10273927e-01
3.62500000e+02	9.08325005e-01
3.63500000e+02	9.06347344e-01
3.64500000e+02	9.04340829e-01
3.65500000e+02	9.02305348e-01
3.66500000e+02	9.00240793e-01
3.67500000e+02	8.98147059e-01
3.68500000e+02	8.96024048e-01
3.69500000e+02	8.93871662e-01
3.70500000e+02	8.91689810e-01
3.71500000e+02	8.89478402e-01
3.72500000e+02	8.87237353e-01
3.73500000e+02	8.84966581e-01
3.74500000e+02	8.82666009e-01
3.75500000e+02	8.80335562e-01
3.76500000e+02	8.77975169e-01
3.77500000e+02	8.75584760e-01
3.78500000e+02	8.73164271e-01
3.79500000e+02	8.70713641e-01
3.80500000e+02	8.68232810e-01
3.81500000e+02	8.65721722e-01
3.82500000e+02	8.63180323e-01
3.83500000e+02	8.60608564e-01
3.84500000e+02	8.58006395e-01
3.85500000e+02	8.55373772e-01
3.86500000e+02	8.52710650e-01
3.87500000e+02	8.50016989e-01
3.88500000e+02	8.47292750e-01
3.89500000e+02	8.44537895e-01
3.90500000e+02	8.41752389e-01
3.91500000e+02	8.38936200e-01
3.92500000e+02	8.36089294e-01
3.93500000e+02	8.33211642e-01
3.94500000e+02	8.30303214e-01
3.95500000e+02	8.27363984e-01
3.96500000e+02	8.24393923e-01
3.97500000e+02	8.21393006e-01
3.98500000e+02	8.18361208e-01
3.99500000e+02	8.15298504e-01
4.00500000e+02	8.12204871e-01
4.01500000e+02	8.09080284e-01
4.02500000e+02	8.05924721e-01
4.03500000e+02	8.02738157e-01
4.04500000e+02	7.99520569e-01
4.05500000e+02	7.96271934e-01
4.06500000e+02	7.92992227e-01
4.07500000e+02	7.89681423e-01
4.08500000e+02	7.86339497e-01
4.09500000e+02	7.82966423e-01
4.10500000e+02	7.79562173e-01
4.11500000e+02	7.76126720e-01
4.12500000e+02	7.72660033e-01
4.13500000e+02	7.69162083e-01
4.14500000e+02	7.65632837e-01
4.15500000e+02	7.62072262e-01
4.16500000e+02	7.58480323e-01
4.17500000e+02	7.54856984e-01
4.18500000e+02	7.51202206e-01
4.19500000e+02	7.47515950e-01
4.20500000e+02	7.43798175e-01
4.21500000e+02	7.40048838e-01
4.22500000e+02	7.36267896e-01
4.23500000e+02	7.32455303e-01
4.24500000e+02	7.28611012e-01
4.25500000e+02	7.24734975e-01
4.26500000e+02	7.20827145e-01
4.27500000e+02	7.16887472e-01
4.28500000e+02	7.12915906e-01
4.29500000e+02	7.08912399e-01
4.30500000e+02	7.04876901e-01
4.31500000e+02	7.00809363e-01
4.32500000e+02	6.96709739e-01
4.33500000e+02	6.92577982e-01
4.34500000e+02	6.88414050e-01
4.35500000e+02	6.84217903e-01
4.36500000e+02	6.79989502e-01
4.37500000e+02	6.75728816e-01
4.38500000e+02	6.71435817e-01
4.39500000e+02	6.67110482e-01
4.40500000e+02	6.62752797e-01
4.41500000e+02	6.58362752e-01
4.42500000e+02	6.53940350e-01
4.43500000e+02	6.49485599e-01
4.44500000e+02	6.44998521e-01
4.45500000e+02	6.40479147e-01
4.46500000e+02	6.35927523e-01
4.47500000e+02	6.31343706e-01
4.48500000e+02	6.26727772e-01
4.49500000e+02	6.22079809e-01
4.50500000e+02	6.17399927e-01
4.51500000e+02	6.12688251e-01
4.52500000e+02	6.07944928e-01
4.53500000e+02	6.03170127e-01
4.54500000e+02	5.98364039e-01
4.55500000e+02	5.93526881e-01
4.56500000e+02	5.88658893e-01
4.57500000e+02	5.83760345e-01
4.58500000e+02	5.78831533e-01
4.59500000e+02	5.73872787e-01
4.60500000e+02	5.68884465e-01
4.61500000e+02	5.63866960e-01
4.62500000e+02	5.58820702e-01
4.63500000e+02	5.53746154e-01
4.64500000e+02	5.48643819e-01
4.65500000e+02	5.43514243e-01
4.66500000e+02	5.38358010e-01
4.67500000e+02	5.33175751e-01
4.68500000e+02	5.27968141e-01
4.69500000e+02	5.22735905e-01
4.70500000e+02	5.17479818e-01
4.71500000e+02	5.12200707e-01
4.72500000e+02	5.06899455e-01
4.73500000e+02	5.01577002e-01
4.74500000e+02	4.96234347e-01
4.75500000e+02	4.90872554e-01
4.76500000e+02	4.85492749e-01
4.77500000e+02	4.80096128e-01
4.78500000e+02	4.74683955e-01
4.79500000e+02	4.69257568e-01
4.80500000e+02	4.63818379e-01
4.81500000e+02	4.58367876e-01
4.82500000e+02	4.52907628e-01
4.83500000e+02	4.47439283e-01
4.84500000e+02	4.41964570e-01
4.85500000e+02	4.36485303e-01
4.86500000e+02	4.31003377e-01
4.87500000e+02	4.25520771e-01
4.88500000e+02	4.20039545e-01
4.89500000e+02	4.14561844e-01
4.90500000e+02	4.09089888e-01
4.91500000e+02	4.03625976e-01
4.92500000e+02	3.98172480e-01
4.93500000e+02	3.92731842e-01
4.94500000e+02	3.87306567e-01
4.95500000e+02	3.81899223e-01
4.96500000e+02	3.76512426e-01
4.97500000e+02	3.71148844e-01
4.98500000e+02	3.65811181e-01
4.99500000e+02	3.60502175e-01
5.00500000e+02	3.55224588e-01
5.01500000e+02	3.49981195e-01
5.02500000e+02	3.44774783e-01
5.03500000e+02	3.39608135e-01
5.04500000e+02	3.34484026e-01
5.05500000e+02	3.29405213e-01
5.06500000e+02	3.24374428e-01
5.07500000e+02	3.19394370e-01
5.08500000e+02	3.14467696e-01
5.09500000e+02	3.09597017e-01
5.10500000e+02	3.04784891e-01
5.11500000e+02	3.00033814e-01
5.12500000e+02	2.95346219e-01
5.13500000e+02	2.90724468e-01
5.14500000e+02	2.86170848e-01
5.15500000e+02	2.81687567e-01
5.16500000e+02	2.77276752e-01
5.17500000e+02	2.72940444e-01
5.18500000e+02	2.68680593e-01
5.19500000e+02	2.64499059e-01
5.20500000e+02	2.60397608e-01
5.21500000e+02	2.56377907e-01
5.22500000e+02	2.52441523e-01
5.23500000e+02	2.48589921e-01
5.24500000e+02	2.44824458e-01
5.25500000e+02	2.41146384e-01
5.26500000e+02	2.37556834e-01
5.27500000e+02	2.34056829e-01
5.28500000e+02	2.30647269e-01
5.29500000e+02	2.27328929e-01
5.30500000e+02	2.24102457e-01
5.31500000e+02	2.20968368e-01
5.32500000e+02	2.17927041e-01
5.33500000e+02	2.14978713e-01
5.34500000e+02	2.12123476e-01
5.35500000e+02	2.09361274e-01
5.36500000e+02	2.06691898e-01
5.37500000e+02	2.04114982e-01
5.38500000e+02	2.01630006e-01
5.39500000e+02	1.99236286e-01
5.40500000e+02	1.96932981e-01
5.41500000e+02	1.94719090e-01
5.42500000e+02	1.92593454e-01
5.43500000e+02	1.90554757e-01
5.44500000e+02	1.88601533e-01
5.45500000e+02	1.86732169e-01
5.46500000e+02	1.84944912e-01
5.47500000e+02	1.83237878e-01
5.48500000e+02	1.81609059e-01
5.49500000e+02	1.80056335e-01
5.50500000e+02	1.78577487e-01
5.51500000e+02	1.77170203e-01
5.52500000e+02	1.75832099e-01
5.53500000e+02	1.74560728e-01
5.54500000e+02	1.73353594e-01
5.55500000e+02	1.72208169e-01
5.56500000e+02	1.71121903e-01
5.57500000e+02	1.70092242e-01
5.58500000e+02	1.69116641e-01
5.59500000e+02	1.68192573e-01
5.60500000e+02	1.67317547e-01
5.61500000e+02	1.66489114e-01
5.62500000e+02	1.65704881e-01
5.63500000e+02	1.64962516e-01
5.64500000e+02	1.64259759e-01
5.65500000e+02	1.63594430e-01
5.66500000e+02	1.62964429e-01
5.67500000e+02	1.62367745e-01
5.68500000e+02	1.61802455e-01
5.69500000e+02	1.61266731e-01
5.70500000e+02	1.60758834e-01
5.71500000e+02	1.60277121e-01
5.72500000e+02	1.59820039e-01
5.73500000e+02	1.59386125e-01
5.74500000e+02	1.58974003e-01
5.75500000e+02	1.58582382e-01
5.76500000e+02	1.58210054e-01
5.77500000e+02	1.57855888e-01
5.78500000e+02	1.57518825e-01
5.79500000e+02	1.57197879e-01
5.80500000e+02	1.56892128e-01
5.81500000e+02	1.56600714e-01
5.82500000e+02	1.56322835e-01
5.83500000e+02	1.56057745e-01
5.84500000e+02	1.55804747e-01
5.85500000e+02	1.55563192e-01
5.86500000e+02	1.55332472e-01
5.87500000e+02	1.55112022e-01
5.88500000e+02	1.54901311e-01
5.89500000e+02	1.54699846e-01
5.90500000e+02	1.54507161e-01
5.91500000e+02	1.54322823e-01
5.92500000e+02	1.54146424e-01
5.93500000e+02	1.53977579e-01
5.94500000e+02	1.53815930e-01
5.95500000e+02	1.53661135e-01
5.96500000e+02	1.53512877e-01
5.97500000e+02	1.53370852e-01
5.98500000e+02	1.53234776e-01
5.99500000e+02	1.53104378e-01
6.00500000e+02	1.52979404e-01
6.01500000e+02	1.52859612e-01
6.02500000e+02	1.52744772e-01
6.03500000e+02	1.52634667e-01
6.04500000e+02	1.52529090e-01
6.05500000e+02	1.52427844e-01
6.06500000e+02	1.52330742e-01
6.07500000e+02	1.52237607e-01
6.08500000e+02	1.52148268e-01
6.09500000e+02	1.52062565e-01
6.10500000e+02	1.51980343e-01
6.11500000e+02	1.51901456e-01
6.12500000e+02	1.51825762e-01
6.13500000e+02	1.51753129e-01
6.14500000e+02	1.51683429e-01
6.15500000e+02	1.51616539e-01
6.16500000e+02	1.51552343e-01
6.17500000e+02	1.51490730e-01
6.18500000e+02	1.51431592e-01
6.19500000e+02	1.51374828e-01
6.20500000e+02	1.51320340e-01
6.21500000e+02	1.51268034e-01
6.22500000e+02	1.51217822e-01
6.23500000e+02	1.51169618e-01
6.24500000e+02	1.51123340e-01
6.25500000e+02	1.51078910e-01
6.26500000e+02	1.51036252e-01
6.27500000e+02	1.50995294e-01
6.28500000e+02	1.50955968e-01
6.29500000e+02	1.50918208e-01
6.30500000e+02	1.50881950e-01
6.31500000e+02	1.50847134e-01
6.32500000e+02	1.50813702e-01
6.33500000e+02	1.50781597e-01
6.34500000e+02	1.50750767e-01
6.35500000e+02	1.50721160e-01
6.36500000e+02	1.50692728e-01
6.37500000e+02	1.50665423e-01
6.38500000e+02	1.50639200e-01
6.39500000e+02	1.50614016e-01
6.40500000e+02	1.50589829e-01
6.41500000e+02	1.50566601e-01
6.42500000e+02	1.50544292e-01
6.43500000e+02	1.50522866e-01
6.44500000e+02	1.50502289e-01
6.45500000e+02	1.50482527e-01
6.46500000e+02	1.50463548e-01
6.47500000e+02	1.50445321e-01
6.48500000e+02	1.50427817e-01
6.49500000e+02	1.50411009e-01
6.50500000e+02	1.50394868e-01
6.51500000e+02	1.50379370e-01
6.52500000e+02	1.50364490e-01
6.53500000e+02	1.50350205e-01
6.54500000e+02	1.50336492e-01
6.55500000e+02	1.50323329e-01
6.56500000e+02	1.50310698e-01
6.57500000e+02	1.50298576e-01
6.58500000e+02	1.50286947e-01
6.59500000e+02	1.50275792e-01
6.60500000e+02	1.50265093e-01
