# Profil de Te au temps 1.900999999999955e-11 
# simu : /Volumes/MERCURE/JOBS/Zeq2_tanh_50mic_2p1e19_B0_20ps/GNU/Te@y-c.set
# col 0 : abscisse (um)
# col 1 : Te (keV)
5.00000000e-01	9.49740650e-01
1.50000000e+00	9.49737457e-01
2.50000000e+00	9.49731312e-01
3.50000000e+00	9.49722116e-01
4.50000000e+00	9.49709777e-01
5.50000000e+00	9.49694360e-01
6.50000000e+00	9.49675862e-01
7.50000000e+00	9.49654282e-01
8.50000000e+00	9.49629622e-01
9.50000000e+00	9.49601881e-01
1.05000000e+01	9.49571061e-01
1.15000000e+01	9.49537162e-01
1.25000000e+01	9.49500186e-01
1.35000000e+01	9.49460134e-01
1.45000000e+01	9.49417007e-01
1.55000000e+01	9.49370806e-01
1.65000000e+01	9.49321533e-01
1.75000000e+01	9.49269190e-01
1.85000000e+01	9.49213777e-01
1.95000000e+01	9.49155297e-01
2.05000000e+01	9.49093751e-01
2.15000000e+01	9.49029142e-01
2.25000000e+01	9.48961471e-01
2.35000000e+01	9.48890740e-01
2.45000000e+01	9.48816952e-01
2.55000000e+01	9.48740109e-01
2.65000000e+01	9.48660212e-01
2.75000000e+01	9.48577265e-01
2.85000000e+01	9.48491271e-01
2.95000000e+01	9.48402231e-01
3.05000000e+01	9.48310148e-01
3.15000000e+01	9.48215025e-01
3.25000000e+01	9.48116866e-01
3.35000000e+01	9.48015673e-01
3.45000000e+01	9.47911449e-01
3.55000000e+01	9.47804197e-01
3.65000000e+01	9.47693920e-01
3.75000000e+01	9.47580623e-01
3.85000000e+01	9.47464308e-01
3.95000000e+01	9.47344978e-01
4.05000000e+01	9.47222638e-01
4.15000000e+01	9.47097292e-01
4.25000000e+01	9.46968942e-01
4.35000000e+01	9.46837592e-01
4.45000000e+01	9.46703248e-01
4.55000000e+01	9.46565912e-01
4.65000000e+01	9.46425589e-01
4.75000000e+01	9.46282283e-01
4.85000000e+01	9.46135998e-01
4.95000000e+01	9.45986739e-01
5.05000000e+01	9.45834510e-01
5.15000000e+01	9.45679316e-01
5.25000000e+01	9.45521161e-01
5.35000000e+01	9.45360050e-01
5.45000000e+01	9.45195988e-01
5.55000000e+01	9.45028980e-01
5.65000000e+01	9.44859030e-01
5.75000000e+01	9.44686143e-01
5.85000000e+01	9.44510326e-01
5.95000000e+01	9.44331582e-01
6.05000000e+01	9.44149917e-01
6.15000000e+01	9.43965337e-01
6.25000000e+01	9.43777846e-01
6.35000000e+01	9.43587451e-01
6.45000000e+01	9.43394157e-01
6.55000000e+01	9.43197969e-01
6.65000000e+01	9.42998894e-01
6.75000000e+01	9.42796936e-01
6.85000000e+01	9.42592103e-01
6.95000000e+01	9.42384399e-01
7.05000000e+01	9.42173832e-01
7.15000000e+01	9.41960406e-01
7.25000000e+01	9.41744128e-01
7.35000000e+01	9.41525005e-01
7.45000000e+01	9.41303042e-01
7.55000000e+01	9.41078246e-01
7.65000000e+01	9.40850623e-01
7.75000000e+01	9.40620181e-01
7.85000000e+01	9.40386924e-01
7.95000000e+01	9.40150861e-01
8.05000000e+01	9.39911998e-01
8.15000000e+01	9.39670341e-01
8.25000000e+01	9.39425897e-01
8.35000000e+01	9.39178674e-01
8.45000000e+01	9.38928678e-01
8.55000000e+01	9.38675916e-01
8.65000000e+01	9.38420396e-01
8.75000000e+01	9.38162123e-01
8.85000000e+01	9.37901107e-01
8.95000000e+01	9.37637353e-01
9.05000000e+01	9.37370870e-01
9.15000000e+01	9.37101664e-01
9.25000000e+01	9.36829744e-01
9.35000000e+01	9.36555116e-01
9.45000000e+01	9.36277788e-01
9.55000000e+01	9.35997767e-01
9.65000000e+01	9.35715062e-01
9.75000000e+01	9.35429680e-01
9.85000000e+01	9.35141629e-01
9.95000000e+01	9.34850917e-01
1.00500000e+02	9.34557551e-01
1.01500000e+02	9.34261539e-01
1.02500000e+02	9.33962890e-01
1.03500000e+02	9.33661611e-01
1.04500000e+02	9.33357711e-01
1.05500000e+02	9.33051197e-01
1.06500000e+02	9.32742079e-01
1.07500000e+02	9.32430363e-01
1.08500000e+02	9.32116058e-01
1.09500000e+02	9.31799173e-01
1.10500000e+02	9.31479716e-01
1.11500000e+02	9.31157696e-01
1.12500000e+02	9.30833120e-01
1.13500000e+02	9.30505997e-01
1.14500000e+02	9.30176337e-01
1.15500000e+02	9.29844146e-01
1.16500000e+02	9.29509435e-01
1.17500000e+02	9.29172211e-01
1.18500000e+02	9.28832483e-01
1.19500000e+02	9.28490261e-01
1.20500000e+02	9.28145552e-01
1.21500000e+02	9.27798365e-01
1.22500000e+02	9.27448710e-01
1.23500000e+02	9.27096595e-01
1.24500000e+02	9.26742030e-01
1.25500000e+02	9.26385022e-01
1.26500000e+02	9.26025581e-01
1.27500000e+02	9.25663716e-01
1.28500000e+02	9.25299436e-01
1.29500000e+02	9.24932750e-01
1.30500000e+02	9.24563668e-01
1.31500000e+02	9.24192197e-01
1.32500000e+02	9.23818348e-01
1.33500000e+02	9.23442129e-01
1.34500000e+02	9.23063550e-01
1.35500000e+02	9.22682619e-01
1.36500000e+02	9.22299347e-01
1.37500000e+02	9.21913741e-01
1.38500000e+02	9.21525812e-01
1.39500000e+02	9.21135568e-01
1.40500000e+02	9.20743020e-01
1.41500000e+02	9.20348175e-01
1.42500000e+02	9.19951044e-01
1.43500000e+02	9.19551636e-01
1.44500000e+02	9.19149961e-01
1.45500000e+02	9.18746026e-01
1.46500000e+02	9.18339843e-01
1.47500000e+02	9.17931420e-01
1.48500000e+02	9.17520766e-01
1.49500000e+02	9.17107892e-01
1.50500000e+02	9.16692806e-01
1.51500000e+02	9.16275518e-01
1.52500000e+02	9.15856037e-01
1.53500000e+02	9.15434372e-01
1.54500000e+02	9.15010534e-01
1.55500000e+02	9.14584531e-01
1.56500000e+02	9.14156373e-01
1.57500000e+02	9.13726068e-01
1.58500000e+02	9.13293628e-01
1.59500000e+02	9.12859060e-01
1.60500000e+02	9.12422375e-01
1.61500000e+02	9.11983582e-01
1.62500000e+02	9.11542689e-01
1.63500000e+02	9.11099707e-01
1.64500000e+02	9.10654645e-01
1.65500000e+02	9.10207511e-01
1.66500000e+02	9.09758316e-01
1.67500000e+02	9.09307068e-01
1.68500000e+02	9.08853777e-01
1.69500000e+02	9.08398452e-01
1.70500000e+02	9.07941103e-01
1.71500000e+02	9.07481737e-01
1.72500000e+02	9.07020365e-01
1.73500000e+02	9.06556996e-01
1.74500000e+02	9.06091638e-01
1.75500000e+02	9.05624301e-01
1.76500000e+02	9.05154993e-01
1.77500000e+02	9.04683724e-01
1.78500000e+02	9.04210503e-01
1.79500000e+02	9.03735338e-01
1.80500000e+02	9.03258238e-01
1.81500000e+02	9.02779212e-01
1.82500000e+02	9.02298268e-01
1.83500000e+02	9.01815416e-01
1.84500000e+02	9.01330663e-01
1.85500000e+02	9.00844019e-01
1.86500000e+02	9.00355492e-01
1.87500000e+02	8.99865089e-01
1.88500000e+02	8.99372821e-01
1.89500000e+02	8.98878693e-01
1.90500000e+02	8.98382716e-01
1.91500000e+02	8.97884896e-01
1.92500000e+02	8.97385242e-01
1.93500000e+02	8.96883762e-01
1.94500000e+02	8.96380463e-01
1.95500000e+02	8.95875353e-01
1.96500000e+02	8.95368440e-01
1.97500000e+02	8.94859732e-01
1.98500000e+02	8.94349234e-01
1.99500000e+02	8.93836956e-01
2.00500000e+02	8.93322903e-01
2.01500000e+02	8.92807083e-01
2.02500000e+02	8.92289503e-01
2.03500000e+02	8.91770169e-01
2.04500000e+02	8.91249089e-01
2.05500000e+02	8.90726267e-01
2.06500000e+02	8.90201712e-01
2.07500000e+02	8.89675428e-01
2.08500000e+02	8.89147422e-01
2.09500000e+02	8.88617700e-01
2.10500000e+02	8.88086266e-01
2.11500000e+02	8.87553128e-01
2.12500000e+02	8.87018289e-01
2.13500000e+02	8.86481755e-01
2.14500000e+02	8.85943530e-01
2.15500000e+02	8.85403621e-01
2.16500000e+02	8.84862029e-01
2.17500000e+02	8.84318761e-01
2.18500000e+02	8.83773820e-01
2.19500000e+02	8.83227209e-01
2.20500000e+02	8.82678932e-01
2.21500000e+02	8.82128993e-01
2.22500000e+02	8.81577394e-01
2.23500000e+02	8.81024139e-01
2.24500000e+02	8.80469228e-01
2.25500000e+02	8.79912665e-01
2.26500000e+02	8.79354452e-01
2.27500000e+02	8.78794590e-01
2.28500000e+02	8.78233080e-01
2.29500000e+02	8.77669923e-01
2.30500000e+02	8.77105120e-01
2.31500000e+02	8.76538671e-01
2.32500000e+02	8.75970576e-01
2.33500000e+02	8.75400834e-01
2.34500000e+02	8.74829445e-01
2.35500000e+02	8.74256408e-01
2.36500000e+02	8.73681721e-01
2.37500000e+02	8.73105381e-01
2.38500000e+02	8.72527387e-01
2.39500000e+02	8.71947736e-01
2.40500000e+02	8.71366424e-01
2.41500000e+02	8.70783448e-01
2.42500000e+02	8.70198804e-01
2.43500000e+02	8.69612488e-01
2.44500000e+02	8.69024493e-01
2.45500000e+02	8.68434815e-01
2.46500000e+02	8.67843447e-01
2.47500000e+02	8.67250384e-01
2.48500000e+02	8.66655618e-01
2.49500000e+02	8.66059141e-01
2.50500000e+02	8.65460946e-01
2.51500000e+02	8.64861023e-01
2.52500000e+02	8.64259363e-01
2.53500000e+02	8.63655958e-01
2.54500000e+02	8.63050796e-01
2.55500000e+02	8.62443866e-01
2.56500000e+02	8.61835156e-01
2.57500000e+02	8.61224655e-01
2.58500000e+02	8.60612350e-01
2.59500000e+02	8.59998227e-01
2.60500000e+02	8.59382271e-01
2.61500000e+02	8.58764469e-01
2.62500000e+02	8.58144804e-01
2.63500000e+02	8.57523261e-01
2.64500000e+02	8.56899822e-01
2.65500000e+02	8.56274469e-01
2.66500000e+02	8.55647185e-01
2.67500000e+02	8.55017950e-01
2.68500000e+02	8.54386744e-01
2.69500000e+02	8.53753547e-01
2.70500000e+02	8.53118336e-01
2.71500000e+02	8.52481090e-01
2.72500000e+02	8.51841786e-01
2.73500000e+02	8.51200400e-01
2.74500000e+02	8.50556907e-01
2.75500000e+02	8.49911281e-01
2.76500000e+02	8.49263497e-01
2.77500000e+02	8.48613526e-01
2.78500000e+02	8.47961340e-01
2.79500000e+02	8.47306911e-01
2.80500000e+02	8.46650209e-01
2.81500000e+02	8.45991203e-01
2.82500000e+02	8.45329860e-01
2.83500000e+02	8.44666148e-01
2.84500000e+02	8.44000034e-01
2.85500000e+02	8.43331483e-01
2.86500000e+02	8.42660459e-01
2.87500000e+02	8.41986926e-01
2.88500000e+02	8.41310846e-01
2.89500000e+02	8.40632181e-01
2.90500000e+02	8.39950892e-01
2.91500000e+02	8.39266937e-01
2.92500000e+02	8.38580275e-01
2.93500000e+02	8.37890864e-01
2.94500000e+02	8.37198660e-01
2.95500000e+02	8.36503619e-01
2.96500000e+02	8.35805695e-01
2.97500000e+02	8.35104841e-01
2.98500000e+02	8.34401010e-01
2.99500000e+02	8.33694153e-01
3.00500000e+02	8.32984221e-01
3.01500000e+02	8.32271161e-01
3.02500000e+02	8.31554923e-01
3.03500000e+02	8.30835454e-01
3.04500000e+02	8.30112699e-01
3.05500000e+02	8.29386604e-01
3.06500000e+02	8.28657112e-01
3.07500000e+02	8.27924166e-01
3.08500000e+02	8.27187708e-01
3.09500000e+02	8.26447678e-01
3.10500000e+02	8.25704017e-01
3.11500000e+02	8.24956662e-01
3.12500000e+02	8.24205552e-01
3.13500000e+02	8.23450622e-01
3.14500000e+02	8.22691809e-01
3.15500000e+02	8.21929046e-01
3.16500000e+02	8.21162266e-01
3.17500000e+02	8.20391403e-01
3.18500000e+02	8.19616388e-01
3.19500000e+02	8.18837150e-01
3.20500000e+02	8.18053619e-01
3.21500000e+02	8.17265723e-01
3.22500000e+02	8.16473390e-01
3.23500000e+02	8.15676546e-01
3.24500000e+02	8.14875116e-01
3.25500000e+02	8.14069025e-01
3.26500000e+02	8.13258196e-01
3.27500000e+02	8.12442552e-01
3.28500000e+02	8.11622014e-01
3.29500000e+02	8.10796503e-01
3.30500000e+02	8.09965938e-01
3.31500000e+02	8.09130240e-01
3.32500000e+02	8.08289325e-01
3.33500000e+02	8.07443111e-01
3.34500000e+02	8.06591515e-01
3.35500000e+02	8.05734451e-01
3.36500000e+02	8.04871836e-01
3.37500000e+02	8.04003582e-01
3.38500000e+02	8.03129604e-01
3.39500000e+02	8.02249813e-01
3.40500000e+02	8.01364122e-01
3.41500000e+02	8.00472441e-01
3.42500000e+02	7.99574681e-01
3.43500000e+02	7.98670752e-01
3.44500000e+02	7.97760563e-01
3.45500000e+02	7.96844022e-01
3.46500000e+02	7.95921037e-01
3.47500000e+02	7.94991515e-01
3.48500000e+02	7.94055364e-01
3.49500000e+02	7.93112488e-01
3.50500000e+02	7.92162795e-01
3.51500000e+02	7.91206188e-01
3.52500000e+02	7.90242574e-01
3.53500000e+02	7.89271855e-01
3.54500000e+02	7.88293935e-01
3.55500000e+02	7.87308719e-01
3.56500000e+02	7.86316108e-01
3.57500000e+02	7.85316006e-01
3.58500000e+02	7.84308314e-01
3.59500000e+02	7.83292935e-01
3.60500000e+02	7.82269771e-01
3.61500000e+02	7.81238721e-01
3.62500000e+02	7.80199689e-01
3.63500000e+02	7.79152574e-01
3.64500000e+02	7.78097277e-01
3.65500000e+02	7.77033700e-01
3.66500000e+02	7.75961741e-01
3.67500000e+02	7.74881302e-01
3.68500000e+02	7.73792282e-01
3.69500000e+02	7.72694582e-01
3.70500000e+02	7.71588103e-01
3.71500000e+02	7.70472743e-01
3.72500000e+02	7.69348404e-01
3.73500000e+02	7.68214985e-01
3.74500000e+02	7.67072387e-01
3.75500000e+02	7.65920511e-01
3.76500000e+02	7.64759258e-01
3.77500000e+02	7.63588527e-01
3.78500000e+02	7.62408222e-01
3.79500000e+02	7.61218242e-01
3.80500000e+02	7.60018491e-01
3.81500000e+02	7.58808871e-01
3.82500000e+02	7.57589284e-01
3.83500000e+02	7.56359634e-01
3.84500000e+02	7.55119825e-01
3.85500000e+02	7.53869760e-01
3.86500000e+02	7.52609346e-01
3.87500000e+02	7.51338489e-01
3.88500000e+02	7.50057094e-01
3.89500000e+02	7.48765070e-01
3.90500000e+02	7.47462325e-01
3.91500000e+02	7.46148768e-01
3.92500000e+02	7.44824310e-01
3.93500000e+02	7.43488862e-01
3.94500000e+02	7.42142336e-01
3.95500000e+02	7.40784648e-01
3.96500000e+02	7.39415711e-01
3.97500000e+02	7.38035444e-01
3.98500000e+02	7.36643762e-01
3.99500000e+02	7.35240588e-01
4.00500000e+02	7.33825841e-01
4.01500000e+02	7.32399444e-01
4.02500000e+02	7.30961324e-01
4.03500000e+02	7.29511405e-01
4.04500000e+02	7.28049617e-01
4.05500000e+02	7.26575891e-01
4.06500000e+02	7.25090159e-01
4.07500000e+02	7.23592356e-01
4.08500000e+02	7.22082421e-01
4.09500000e+02	7.20560292e-01
4.10500000e+02	7.19025913e-01
4.11500000e+02	7.17479228e-01
4.12500000e+02	7.15920186e-01
4.13500000e+02	7.14348737e-01
4.14500000e+02	7.12764834e-01
4.15500000e+02	7.11168434e-01
4.16500000e+02	7.09559498e-01
4.17500000e+02	7.07937988e-01
4.18500000e+02	7.06303870e-01
4.19500000e+02	7.04657114e-01
4.20500000e+02	7.02997693e-01
4.21500000e+02	7.01325586e-01
4.22500000e+02	6.99640771e-01
4.23500000e+02	6.97943234e-01
4.24500000e+02	6.96232963e-01
4.25500000e+02	6.94509951e-01
4.26500000e+02	6.92774195e-01
4.27500000e+02	6.91025694e-01
4.28500000e+02	6.89264455e-01
4.29500000e+02	6.87490486e-01
4.30500000e+02	6.85703801e-01
4.31500000e+02	6.83904420e-01
4.32500000e+02	6.82092364e-01
4.33500000e+02	6.80267662e-01
4.34500000e+02	6.78430346e-01
4.35500000e+02	6.76580453e-01
4.36500000e+02	6.74718025e-01
4.37500000e+02	6.72843110e-01
4.38500000e+02	6.70955758e-01
4.39500000e+02	6.69056027e-01
4.40500000e+02	6.67143979e-01
4.41500000e+02	6.65219680e-01
4.42500000e+02	6.63283203e-01
4.43500000e+02	6.61334624e-01
4.44500000e+02	6.59374026e-01
4.45500000e+02	6.57401495e-01
4.46500000e+02	6.55417123e-01
4.47500000e+02	6.53421009e-01
4.48500000e+02	6.51413253e-01
4.49500000e+02	6.49393963e-01
4.50500000e+02	6.47363251e-01
4.51500000e+02	6.45321235e-01
4.52500000e+02	6.43268035e-01
4.53500000e+02	6.41203779e-01
4.54500000e+02	6.39128597e-01
4.55500000e+02	6.37042625e-01
4.56500000e+02	6.34946004e-01
4.57500000e+02	6.32838878e-01
4.58500000e+02	6.30721397e-01
4.59500000e+02	6.28593713e-01
4.60500000e+02	6.26455983e-01
4.61500000e+02	6.24308370e-01
4.62500000e+02	6.22151038e-01
4.63500000e+02	6.19984155e-01
4.64500000e+02	6.17807895e-01
4.65500000e+02	6.15622432e-01
4.66500000e+02	6.13427946e-01
4.67500000e+02	6.11224618e-01
4.68500000e+02	6.09012634e-01
4.69500000e+02	6.06792181e-01
4.70500000e+02	6.04563450e-01
4.71500000e+02	6.02326633e-01
4.72500000e+02	6.00081926e-01
4.73500000e+02	5.97829525e-01
4.74500000e+02	5.95569630e-01
4.75500000e+02	5.93302442e-01
4.76500000e+02	5.91028162e-01
4.77500000e+02	5.88746997e-01
4.78500000e+02	5.86459150e-01
4.79500000e+02	5.84164828e-01
4.80500000e+02	5.81864240e-01
4.81500000e+02	5.79557593e-01
4.82500000e+02	5.77245098e-01
4.83500000e+02	5.74926965e-01
4.84500000e+02	5.72603403e-01
4.85500000e+02	5.70274626e-01
4.86500000e+02	5.67940844e-01
4.87500000e+02	5.65602269e-01
4.88500000e+02	5.63259114e-01
4.89500000e+02	5.60911591e-01
4.90500000e+02	5.58559914e-01
4.91500000e+02	5.56204294e-01
4.92500000e+02	5.53844946e-01
4.93500000e+02	5.51482081e-01
4.94500000e+02	5.49115915e-01
4.95500000e+02	5.46746659e-01
4.96500000e+02	5.44374529e-01
4.97500000e+02	5.41999737e-01
4.98500000e+02	5.39622498e-01
4.99500000e+02	5.37243027e-01
5.00500000e+02	5.34861538e-01
5.01500000e+02	5.32478248e-01
5.02500000e+02	5.30093373e-01
5.03500000e+02	5.27707129e-01
5.04500000e+02	5.25319735e-01
5.05500000e+02	5.22931410e-01
5.06500000e+02	5.20542373e-01
5.07500000e+02	5.18152847e-01
5.08500000e+02	5.15763053e-01
5.09500000e+02	5.13373217e-01
5.10500000e+02	5.10983565e-01
5.11500000e+02	5.08594324e-01
5.12500000e+02	5.06205725e-01
5.13500000e+02	5.03818001e-01
5.14500000e+02	5.01431387e-01
5.15500000e+02	4.99046119e-01
5.16500000e+02	4.96662439e-01
5.17500000e+02	4.94280588e-01
5.18500000e+02	4.91900814e-01
5.19500000e+02	4.89523366e-01
5.20500000e+02	4.87148496e-01
5.21500000e+02	4.84776460e-01
5.22500000e+02	4.82407518e-01
5.23500000e+02	4.80041934e-01
5.24500000e+02	4.77679973e-01
5.25500000e+02	4.75321908e-01
5.26500000e+02	4.72968012e-01
5.27500000e+02	4.70618565e-01
5.28500000e+02	4.68273848e-01
5.29500000e+02	4.65934149e-01
5.30500000e+02	4.63599758e-01
5.31500000e+02	4.61270970e-01
5.32500000e+02	4.58948082e-01
5.33500000e+02	4.56631397e-01
5.34500000e+02	4.54321221e-01
5.35500000e+02	4.52017864e-01
5.36500000e+02	4.49721638e-01
5.37500000e+02	4.47432861e-01
5.38500000e+02	4.45151852e-01
5.39500000e+02	4.42878934e-01
5.40500000e+02	4.40614432e-01
5.41500000e+02	4.38358675e-01
5.42500000e+02	4.36111993e-01
5.43500000e+02	4.33874720e-01
5.44500000e+02	4.31647188e-01
5.45500000e+02	4.29429734e-01
5.46500000e+02	4.27222696e-01
5.47500000e+02	4.25026410e-01
5.48500000e+02	4.22841215e-01
5.49500000e+02	4.20667450e-01
5.50500000e+02	4.18505452e-01
5.51500000e+02	4.16355559e-01
5.52500000e+02	4.14218105e-01
5.53500000e+02	4.12093427e-01
5.54500000e+02	4.09981855e-01
5.55500000e+02	4.07883721e-01
5.56500000e+02	4.05799349e-01
5.57500000e+02	4.03729065e-01
5.58500000e+02	4.01673188e-01
5.59500000e+02	3.99632032e-01
5.60500000e+02	3.97605908e-01
5.61500000e+02	3.95595122e-01
5.62500000e+02	3.93599973e-01
5.63500000e+02	3.91620754e-01
5.64500000e+02	3.89657752e-01
5.65500000e+02	3.87711246e-01
5.66500000e+02	3.85781509e-01
5.67500000e+02	3.83868804e-01
5.68500000e+02	3.81973389e-01
5.69500000e+02	3.80095510e-01
5.70500000e+02	3.78235405e-01
5.71500000e+02	3.76393305e-01
5.72500000e+02	3.74569428e-01
5.73500000e+02	3.72763983e-01
5.74500000e+02	3.70977171e-01
5.75500000e+02	3.69209179e-01
5.76500000e+02	3.67460186e-01
5.77500000e+02	3.65730360e-01
5.78500000e+02	3.64019856e-01
5.79500000e+02	3.62328819e-01
5.80500000e+02	3.60657383e-01
5.81500000e+02	3.59005671e-01
5.82500000e+02	3.57373793e-01
5.83500000e+02	3.55761848e-01
5.84500000e+02	3.54169924e-01
5.85500000e+02	3.52598097e-01
5.86500000e+02	3.51046433e-01
5.87500000e+02	3.49514984e-01
5.88500000e+02	3.48003792e-01
5.89500000e+02	3.46512889e-01
5.90500000e+02	3.45042294e-01
5.91500000e+02	3.43592016e-01
5.92500000e+02	3.42162053e-01
5.93500000e+02	3.40752394e-01
5.94500000e+02	3.39363015e-01
5.95500000e+02	3.37993883e-01
5.96500000e+02	3.36644957e-01
5.97500000e+02	3.35316185e-01
5.98500000e+02	3.34007505e-01
5.99500000e+02	3.32718846e-01
6.00500000e+02	3.31450131e-01
6.01500000e+02	3.30201273e-01
6.02500000e+02	3.28972175e-01
6.03500000e+02	3.27762735e-01
6.04500000e+02	3.26572844e-01
6.05500000e+02	3.25402384e-01
6.06500000e+02	3.24251230e-01
6.07500000e+02	3.23119254e-01
6.08500000e+02	3.22006319e-01
6.09500000e+02	3.20912284e-01
6.10500000e+02	3.19837000e-01
6.11500000e+02	3.18780318e-01
6.12500000e+02	3.17742079e-01
6.13500000e+02	3.16722125e-01
6.14500000e+02	3.15720289e-01
6.15500000e+02	3.14736403e-01
6.16500000e+02	3.13770297e-01
6.17500000e+02	3.12821796e-01
6.18500000e+02	3.11890723e-01
6.19500000e+02	3.10976898e-01
6.20500000e+02	3.10080141e-01
6.21500000e+02	3.09200268e-01
6.22500000e+02	3.08337095e-01
6.23500000e+02	3.07490436e-01
6.24500000e+02	3.06660105e-01
6.25500000e+02	3.05845915e-01
6.26500000e+02	3.05047677e-01
6.27500000e+02	3.04265204e-01
6.28500000e+02	3.03498308e-01
6.29500000e+02	3.02746802e-01
6.30500000e+02	3.02010499e-01
6.31500000e+02	3.01289212e-01
6.32500000e+02	3.00582755e-01
6.33500000e+02	2.99890944e-01
6.34500000e+02	2.99213596e-01
6.35500000e+02	2.98550529e-01
6.36500000e+02	2.97901563e-01
6.37500000e+02	2.97266519e-01
6.38500000e+02	2.96645222e-01
6.39500000e+02	2.96037495e-01
6.40500000e+02	2.95443166e-01
6.41500000e+02	2.94862064e-01
6.42500000e+02	2.94294021e-01
6.43500000e+02	2.93738869e-01
6.44500000e+02	2.93196447e-01
6.45500000e+02	2.92666594e-01
6.46500000e+02	2.92149152e-01
6.47500000e+02	2.91643963e-01
6.48500000e+02	2.91150877e-01
6.49500000e+02	2.90669741e-01
6.50500000e+02	2.90200409e-01
6.51500000e+02	2.89742736e-01
6.52500000e+02	2.89296582e-01
6.53500000e+02	2.88861808e-01
6.54500000e+02	2.88438280e-01
6.55500000e+02	2.88025865e-01
6.56500000e+02	2.87624434e-01
6.57500000e+02	2.87233860e-01
6.58500000e+02	2.86854020e-01
6.59500000e+02	2.86484795e-01
6.60500000e+02	2.86126067e-01
