# Profil de Te au temps 2.009999999999998e-12 
# simu : /Volumes/MERCURE/JOBS/Zeq2_tanh_50mic_2p1e19_B0_20ps/GNU/Te@y-c.set
# col 0 : abscisse (um)
# col 1 : Te (keV)
5.00000000e-01	9.99999957e-01
1.50000000e+00	9.99999954e-01
2.50000000e+00	9.99999956e-01
3.50000000e+00	9.99999957e-01
4.50000000e+00	9.99999956e-01
5.50000000e+00	9.99999956e-01
6.50000000e+00	9.99999956e-01
7.50000000e+00	9.99999955e-01
8.50000000e+00	9.99999954e-01
9.50000000e+00	9.99999953e-01
1.05000000e+01	9.99999953e-01
1.15000000e+01	9.99999951e-01
1.25000000e+01	9.99999950e-01
1.35000000e+01	9.99999949e-01
1.45000000e+01	9.99999948e-01
1.55000000e+01	9.99999946e-01
1.65000000e+01	9.99999944e-01
1.75000000e+01	9.99999942e-01
1.85000000e+01	9.99999940e-01
1.95000000e+01	9.99999937e-01
2.05000000e+01	9.99999935e-01
2.15000000e+01	9.99999932e-01
2.25000000e+01	9.99999929e-01
2.35000000e+01	9.99999926e-01
2.45000000e+01	9.99999923e-01
2.55000000e+01	9.99999919e-01
2.65000000e+01	9.99999916e-01
2.75000000e+01	9.99999913e-01
2.85000000e+01	9.99999909e-01
2.95000000e+01	9.99999906e-01
3.05000000e+01	9.99999902e-01
3.15000000e+01	9.99999898e-01
3.25000000e+01	9.99999894e-01
3.35000000e+01	9.99999890e-01
3.45000000e+01	9.99999885e-01
3.55000000e+01	9.99999881e-01
3.65000000e+01	9.99999876e-01
3.75000000e+01	9.99999871e-01
3.85000000e+01	9.99999866e-01
3.95000000e+01	9.99999861e-01
4.05000000e+01	9.99999855e-01
4.15000000e+01	9.99999849e-01
4.25000000e+01	9.99999843e-01
4.35000000e+01	9.99999837e-01
4.45000000e+01	9.99999831e-01
4.55000000e+01	9.99999824e-01
4.65000000e+01	9.99999817e-01
4.75000000e+01	9.99999810e-01
4.85000000e+01	9.99999802e-01
4.95000000e+01	9.99999794e-01
5.05000000e+01	9.99999786e-01
5.15000000e+01	9.99999777e-01
5.25000000e+01	9.99999768e-01
5.35000000e+01	9.99999759e-01
5.45000000e+01	9.99999749e-01
5.55000000e+01	9.99999739e-01
5.65000000e+01	9.99999729e-01
5.75000000e+01	9.99999718e-01
5.85000000e+01	9.99999706e-01
5.95000000e+01	9.99999694e-01
6.05000000e+01	9.99999682e-01
6.15000000e+01	9.99999669e-01
6.25000000e+01	9.99999655e-01
6.35000000e+01	9.99999641e-01
6.45000000e+01	9.99999627e-01
6.55000000e+01	9.99999612e-01
6.65000000e+01	9.99999596e-01
6.75000000e+01	9.99999579e-01
6.85000000e+01	9.99999562e-01
6.95000000e+01	9.99999544e-01
7.05000000e+01	9.99999526e-01
7.15000000e+01	9.99999506e-01
7.25000000e+01	9.99999486e-01
7.35000000e+01	9.99999465e-01
7.45000000e+01	9.99999444e-01
7.55000000e+01	9.99999421e-01
7.65000000e+01	9.99999397e-01
7.75000000e+01	9.99999373e-01
7.85000000e+01	9.99999347e-01
7.95000000e+01	9.99999321e-01
8.05000000e+01	9.99999293e-01
8.15000000e+01	9.99999264e-01
8.25000000e+01	9.99999234e-01
8.35000000e+01	9.99999203e-01
8.45000000e+01	9.99999170e-01
8.55000000e+01	9.99999136e-01
8.65000000e+01	9.99999101e-01
8.75000000e+01	9.99999064e-01
8.85000000e+01	9.99999026e-01
8.95000000e+01	9.99998987e-01
9.05000000e+01	9.99998945e-01
9.15000000e+01	9.99998902e-01
9.25000000e+01	9.99998857e-01
9.35000000e+01	9.99998811e-01
9.45000000e+01	9.99998762e-01
9.55000000e+01	9.99998712e-01
9.65000000e+01	9.99998659e-01
9.75000000e+01	9.99998605e-01
9.85000000e+01	9.99998548e-01
9.95000000e+01	9.99998488e-01
1.00500000e+02	9.99998427e-01
1.01500000e+02	9.99998363e-01
1.02500000e+02	9.99998296e-01
1.03500000e+02	9.99998226e-01
1.04500000e+02	9.99998154e-01
1.05500000e+02	9.99998079e-01
1.06500000e+02	9.99998000e-01
1.07500000e+02	9.99997919e-01
1.08500000e+02	9.99997834e-01
1.09500000e+02	9.99997745e-01
1.10500000e+02	9.99997653e-01
1.11500000e+02	9.99997558e-01
1.12500000e+02	9.99997458e-01
1.13500000e+02	9.99997354e-01
1.14500000e+02	9.99997246e-01
1.15500000e+02	9.99997134e-01
1.16500000e+02	9.99997017e-01
1.17500000e+02	9.99996895e-01
1.18500000e+02	9.99996768e-01
1.19500000e+02	9.99996637e-01
1.20500000e+02	9.99996499e-01
1.21500000e+02	9.99996356e-01
1.22500000e+02	9.99996208e-01
1.23500000e+02	9.99996053e-01
1.24500000e+02	9.99995892e-01
1.25500000e+02	9.99995724e-01
1.26500000e+02	9.99995550e-01
1.27500000e+02	9.99995368e-01
1.28500000e+02	9.99995179e-01
1.29500000e+02	9.99994983e-01
1.30500000e+02	9.99994778e-01
1.31500000e+02	9.99994565e-01
1.32500000e+02	9.99994343e-01
1.33500000e+02	9.99994112e-01
1.34500000e+02	9.99993872e-01
1.35500000e+02	9.99993622e-01
1.36500000e+02	9.99993362e-01
1.37500000e+02	9.99993091e-01
1.38500000e+02	9.99992809e-01
1.39500000e+02	9.99992515e-01
1.40500000e+02	9.99992210e-01
1.41500000e+02	9.99991892e-01
1.42500000e+02	9.99991561e-01
1.43500000e+02	9.99991217e-01
1.44500000e+02	9.99990858e-01
1.45500000e+02	9.99990485e-01
1.46500000e+02	9.99990097e-01
1.47500000e+02	9.99989693e-01
1.48500000e+02	9.99989272e-01
1.49500000e+02	9.99988835e-01
1.50500000e+02	9.99988379e-01
1.51500000e+02	9.99987905e-01
1.52500000e+02	9.99987411e-01
1.53500000e+02	9.99986898e-01
1.54500000e+02	9.99986363e-01
1.55500000e+02	9.99985807e-01
1.56500000e+02	9.99985227e-01
1.57500000e+02	9.99984625e-01
1.58500000e+02	9.99983997e-01
1.59500000e+02	9.99983344e-01
1.60500000e+02	9.99982665e-01
1.61500000e+02	9.99981957e-01
1.62500000e+02	9.99981221e-01
1.63500000e+02	9.99980455e-01
1.64500000e+02	9.99979657e-01
1.65500000e+02	9.99978827e-01
1.66500000e+02	9.99977963e-01
1.67500000e+02	9.99977064e-01
1.68500000e+02	9.99976128e-01
1.69500000e+02	9.99975154e-01
1.70500000e+02	9.99974140e-01
1.71500000e+02	9.99973085e-01
1.72500000e+02	9.99971987e-01
1.73500000e+02	9.99970844e-01
1.74500000e+02	9.99969654e-01
1.75500000e+02	9.99968416e-01
1.76500000e+02	9.99967127e-01
1.77500000e+02	9.99965786e-01
1.78500000e+02	9.99964390e-01
1.79500000e+02	9.99962937e-01
1.80500000e+02	9.99961425e-01
1.81500000e+02	9.99959851e-01
1.82500000e+02	9.99958213e-01
1.83500000e+02	9.99956508e-01
1.84500000e+02	9.99954733e-01
1.85500000e+02	9.99952887e-01
1.86500000e+02	9.99950964e-01
1.87500000e+02	9.99948964e-01
1.88500000e+02	9.99946882e-01
1.89500000e+02	9.99944715e-01
1.90500000e+02	9.99942459e-01
1.91500000e+02	9.99940112e-01
1.92500000e+02	9.99937669e-01
1.93500000e+02	9.99935126e-01
1.94500000e+02	9.99932479e-01
1.95500000e+02	9.99929725e-01
1.96500000e+02	9.99926858e-01
1.97500000e+02	9.99923875e-01
1.98500000e+02	9.99920769e-01
1.99500000e+02	9.99917538e-01
2.00500000e+02	9.99914174e-01
2.01500000e+02	9.99910673e-01
2.02500000e+02	9.99907030e-01
2.03500000e+02	9.99903238e-01
2.04500000e+02	9.99899291e-01
2.05500000e+02	9.99895184e-01
2.06500000e+02	9.99890909e-01
2.07500000e+02	9.99886460e-01
2.08500000e+02	9.99881830e-01
2.09500000e+02	9.99877011e-01
2.10500000e+02	9.99871995e-01
2.11500000e+02	9.99866776e-01
2.12500000e+02	9.99861343e-01
2.13500000e+02	9.99855689e-01
2.14500000e+02	9.99849805e-01
2.15500000e+02	9.99843681e-01
2.16500000e+02	9.99837308e-01
2.17500000e+02	9.99830675e-01
2.18500000e+02	9.99823772e-01
2.19500000e+02	9.99816588e-01
2.20500000e+02	9.99809112e-01
2.21500000e+02	9.99801331e-01
2.22500000e+02	9.99793233e-01
2.23500000e+02	9.99784805e-01
2.24500000e+02	9.99776035e-01
2.25500000e+02	9.99766908e-01
2.26500000e+02	9.99757409e-01
2.27500000e+02	9.99747523e-01
2.28500000e+02	9.99737236e-01
2.29500000e+02	9.99726530e-01
2.30500000e+02	9.99715388e-01
2.31500000e+02	9.99703794e-01
2.32500000e+02	9.99691727e-01
2.33500000e+02	9.99679171e-01
2.34500000e+02	9.99666103e-01
2.35500000e+02	9.99652505e-01
2.36500000e+02	9.99638354e-01
2.37500000e+02	9.99623628e-01
2.38500000e+02	9.99608304e-01
2.39500000e+02	9.99592358e-01
2.40500000e+02	9.99575764e-01
2.41500000e+02	9.99558496e-01
2.42500000e+02	9.99540527e-01
2.43500000e+02	9.99521829e-01
2.44500000e+02	9.99502372e-01
2.45500000e+02	9.99482126e-01
2.46500000e+02	9.99461059e-01
2.47500000e+02	9.99439138e-01
2.48500000e+02	9.99416328e-01
2.49500000e+02	9.99392594e-01
2.50500000e+02	9.99367899e-01
2.51500000e+02	9.99342203e-01
2.52500000e+02	9.99315467e-01
2.53500000e+02	9.99287648e-01
2.54500000e+02	9.99258704e-01
2.55500000e+02	9.99228590e-01
2.56500000e+02	9.99197258e-01
2.57500000e+02	9.99164659e-01
2.58500000e+02	9.99130744e-01
2.59500000e+02	9.99095458e-01
2.60500000e+02	9.99058749e-01
2.61500000e+02	9.99020558e-01
2.62500000e+02	9.98980826e-01
2.63500000e+02	9.98939493e-01
2.64500000e+02	9.98896494e-01
2.65500000e+02	9.98851764e-01
2.66500000e+02	9.98805233e-01
2.67500000e+02	9.98756830e-01
2.68500000e+02	9.98706480e-01
2.69500000e+02	9.98654108e-01
2.70500000e+02	9.98599632e-01
2.71500000e+02	9.98542969e-01
2.72500000e+02	9.98484034e-01
2.73500000e+02	9.98422737e-01
2.74500000e+02	9.98358985e-01
2.75500000e+02	9.98292681e-01
2.76500000e+02	9.98223725e-01
2.77500000e+02	9.98152013e-01
2.78500000e+02	9.98077438e-01
2.79500000e+02	9.97999888e-01
2.80500000e+02	9.97919247e-01
2.81500000e+02	9.97835394e-01
2.82500000e+02	9.97748205e-01
2.83500000e+02	9.97657550e-01
2.84500000e+02	9.97563296e-01
2.85500000e+02	9.97465303e-01
2.86500000e+02	9.97363427e-01
2.87500000e+02	9.97257520e-01
2.88500000e+02	9.97147426e-01
2.89500000e+02	9.97032985e-01
2.90500000e+02	9.96914031e-01
2.91500000e+02	9.96790392e-01
2.92500000e+02	9.96661892e-01
2.93500000e+02	9.96528344e-01
2.94500000e+02	9.96389559e-01
2.95500000e+02	9.96245339e-01
2.96500000e+02	9.96095481e-01
2.97500000e+02	9.95939772e-01
2.98500000e+02	9.95777996e-01
2.99500000e+02	9.95609926e-01
3.00500000e+02	9.95435328e-01
3.01500000e+02	9.95253963e-01
3.02500000e+02	9.95065579e-01
3.03500000e+02	9.94869922e-01
3.04500000e+02	9.94666723e-01
3.05500000e+02	9.94455711e-01
3.06500000e+02	9.94236600e-01
3.07500000e+02	9.94009099e-01
3.08500000e+02	9.93772907e-01
3.09500000e+02	9.93527713e-01
3.10500000e+02	9.93273196e-01
3.11500000e+02	9.93009027e-01
3.12500000e+02	9.92734865e-01
3.13500000e+02	9.92450360e-01
3.14500000e+02	9.92155152e-01
3.15500000e+02	9.91848868e-01
3.16500000e+02	9.91531127e-01
3.17500000e+02	9.91201537e-01
3.18500000e+02	9.90859693e-01
3.19500000e+02	9.90505180e-01
3.20500000e+02	9.90137571e-01
3.21500000e+02	9.89756430e-01
3.22500000e+02	9.89361305e-01
3.23500000e+02	9.88951737e-01
3.24500000e+02	9.88527251e-01
3.25500000e+02	9.88087362e-01
3.26500000e+02	9.87631574e-01
3.27500000e+02	9.87159377e-01
3.28500000e+02	9.86670250e-01
3.29500000e+02	9.86163659e-01
3.30500000e+02	9.85639059e-01
3.31500000e+02	9.85095891e-01
3.32500000e+02	9.84533585e-01
3.33500000e+02	9.83951559e-01
3.34500000e+02	9.83349218e-01
3.35500000e+02	9.82725955e-01
3.36500000e+02	9.82081153e-01
3.37500000e+02	9.81414179e-01
3.38500000e+02	9.80724393e-01
3.39500000e+02	9.80011140e-01
3.40500000e+02	9.79273754e-01
3.41500000e+02	9.78511560e-01
3.42500000e+02	9.77723870e-01
3.43500000e+02	9.76909985e-01
3.44500000e+02	9.76069196e-01
3.45500000e+02	9.75200786e-01
3.46500000e+02	9.74304023e-01
3.47500000e+02	9.73378171e-01
3.48500000e+02	9.72422481e-01
3.49500000e+02	9.71436198e-01
3.50500000e+02	9.70418556e-01
3.51500000e+02	9.69368782e-01
3.52500000e+02	9.68286096e-01
3.53500000e+02	9.67169712e-01
3.54500000e+02	9.66018836e-01
3.55500000e+02	9.64832668e-01
3.56500000e+02	9.63610404e-01
3.57500000e+02	9.62351233e-01
3.58500000e+02	9.61054343e-01
3.59500000e+02	9.59718915e-01
3.60500000e+02	9.58344131e-01
3.61500000e+02	9.56929167e-01
3.62500000e+02	9.55473199e-01
3.63500000e+02	9.53975404e-01
3.64500000e+02	9.52434955e-01
3.65500000e+02	9.50851029e-01
3.66500000e+02	9.49222802e-01
3.67500000e+02	9.47549455e-01
3.68500000e+02	9.45830168e-01
3.69500000e+02	9.44064127e-01
3.70500000e+02	9.42250522e-01
3.71500000e+02	9.40388548e-01
3.72500000e+02	9.38477407e-01
3.73500000e+02	9.36516305e-01
3.74500000e+02	9.34504458e-01
3.75500000e+02	9.32441089e-01
3.76500000e+02	9.30325431e-01
3.77500000e+02	9.28156726e-01
3.78500000e+02	9.25934227e-01
3.79500000e+02	9.23657198e-01
3.80500000e+02	9.21324915e-01
3.81500000e+02	9.18936668e-01
3.82500000e+02	9.16491760e-01
3.83500000e+02	9.13989507e-01
3.84500000e+02	9.11429241e-01
3.85500000e+02	9.08810312e-01
3.86500000e+02	9.06132082e-01
3.87500000e+02	9.03393933e-01
3.88500000e+02	9.00595264e-01
3.89500000e+02	8.97735493e-01
3.90500000e+02	8.94814056e-01
3.91500000e+02	8.91830408e-01
3.92500000e+02	8.88784026e-01
3.93500000e+02	8.85674406e-01
3.94500000e+02	8.82501067e-01
3.95500000e+02	8.79263547e-01
3.96500000e+02	8.75961408e-01
3.97500000e+02	8.72594236e-01
3.98500000e+02	8.69161638e-01
3.99500000e+02	8.65663244e-01
4.00500000e+02	8.62098711e-01
4.01500000e+02	8.58467717e-01
4.02500000e+02	8.54769967e-01
4.03500000e+02	8.51005192e-01
4.04500000e+02	8.47173145e-01
4.05500000e+02	8.43273608e-01
4.06500000e+02	8.39306388e-01
4.07500000e+02	8.35271318e-01
4.08500000e+02	8.31168259e-01
4.09500000e+02	8.26997098e-01
4.10500000e+02	8.22757751e-01
4.11500000e+02	8.18450158e-01
4.12500000e+02	8.14074292e-01
4.13500000e+02	8.09630149e-01
4.14500000e+02	8.05117757e-01
4.15500000e+02	8.00537171e-01
4.16500000e+02	7.95888477e-01
4.17500000e+02	7.91171787e-01
4.18500000e+02	7.86387246e-01
4.19500000e+02	7.81535027e-01
4.20500000e+02	7.76615334e-01
4.21500000e+02	7.71628401e-01
4.22500000e+02	7.66574493e-01
4.23500000e+02	7.61453908e-01
4.24500000e+02	7.56266974e-01
4.25500000e+02	7.51014053e-01
4.26500000e+02	7.45695540e-01
4.27500000e+02	7.40311863e-01
4.28500000e+02	7.34863484e-01
4.29500000e+02	7.29350903e-01
4.30500000e+02	7.23774651e-01
4.31500000e+02	7.18135302e-01
4.32500000e+02	7.12433463e-01
4.33500000e+02	7.06669784e-01
4.34500000e+02	7.00844953e-01
4.35500000e+02	6.94959701e-01
4.36500000e+02	6.89014801e-01
4.37500000e+02	6.83011073e-01
4.38500000e+02	6.76949382e-01
4.39500000e+02	6.70830643e-01
4.40500000e+02	6.64655820e-01
4.41500000e+02	6.58425932e-01
4.42500000e+02	6.52142051e-01
4.43500000e+02	6.45805309e-01
4.44500000e+02	6.39416898e-01
4.45500000e+02	6.32978073e-01
4.46500000e+02	6.26490157e-01
4.47500000e+02	6.19954541e-01
4.48500000e+02	6.13372690e-01
4.49500000e+02	6.06746147e-01
4.50500000e+02	6.00076533e-01
4.51500000e+02	5.93365557e-01
4.52500000e+02	5.86615013e-01
4.53500000e+02	5.79826787e-01
4.54500000e+02	5.73002864e-01
4.55500000e+02	5.66145326e-01
4.56500000e+02	5.59256362e-01
4.57500000e+02	5.52338266e-01
4.58500000e+02	5.45393447e-01
4.59500000e+02	5.38424426e-01
4.60500000e+02	5.31433845e-01
4.61500000e+02	5.24424467e-01
4.62500000e+02	5.17399180e-01
4.63500000e+02	5.10360997e-01
4.64500000e+02	5.03313061e-01
4.65500000e+02	4.96258642e-01
4.66500000e+02	4.89201143e-01
4.67500000e+02	4.82144091e-01
4.68500000e+02	4.75091146e-01
4.69500000e+02	4.68046090e-01
4.70500000e+02	4.61012828e-01
4.71500000e+02	4.53995382e-01
4.72500000e+02	4.46997889e-01
4.73500000e+02	4.40024587e-01
4.74500000e+02	4.33079815e-01
4.75500000e+02	4.26167998e-01
4.76500000e+02	4.19293638e-01
4.77500000e+02	4.12461304e-01
4.78500000e+02	4.05675616e-01
4.79500000e+02	3.98941231e-01
4.80500000e+02	3.92262829e-01
4.81500000e+02	3.85645093e-01
4.82500000e+02	3.79092695e-01
4.83500000e+02	3.72610274e-01
4.84500000e+02	3.66202417e-01
4.85500000e+02	3.59873642e-01
4.86500000e+02	3.53628370e-01
4.87500000e+02	3.47470911e-01
4.88500000e+02	3.41405442e-01
4.89500000e+02	3.35435979e-01
4.90500000e+02	3.29566368e-01
4.91500000e+02	3.23800254e-01
4.92500000e+02	3.18141067e-01
4.93500000e+02	3.12592005e-01
4.94500000e+02	3.07156015e-01
4.95500000e+02	3.01835776e-01
4.96500000e+02	2.96633689e-01
4.97500000e+02	2.91551862e-01
4.98500000e+02	2.86592104e-01
4.99500000e+02	2.81755914e-01
5.00500000e+02	2.77044477e-01
5.01500000e+02	2.72458662e-01
5.02500000e+02	2.67999023e-01
5.03500000e+02	2.63665800e-01
5.04500000e+02	2.59458922e-01
5.05500000e+02	2.55378018e-01
5.06500000e+02	2.51422428e-01
5.07500000e+02	2.47591207e-01
5.08500000e+02	2.43883148e-01
5.09500000e+02	2.40296794e-01
5.10500000e+02	2.36830453e-01
5.11500000e+02	2.33482222e-01
5.12500000e+02	2.30250001e-01
5.13500000e+02	2.27131517e-01
5.14500000e+02	2.24124345e-01
5.15500000e+02	2.21225925e-01
5.16500000e+02	2.18433585e-01
5.17500000e+02	2.15744565e-01
5.18500000e+02	2.13156029e-01
5.19500000e+02	2.10665090e-01
5.20500000e+02	2.08268825e-01
5.21500000e+02	2.05964289e-01
5.22500000e+02	2.03748538e-01
5.23500000e+02	2.01618634e-01
5.24500000e+02	1.99571661e-01
5.25500000e+02	1.97604739e-01
5.26500000e+02	1.95715028e-01
5.27500000e+02	1.93899738e-01
5.28500000e+02	1.92156140e-01
5.29500000e+02	1.90481564e-01
5.30500000e+02	1.88873411e-01
5.31500000e+02	1.87329152e-01
5.32500000e+02	1.85846332e-01
5.33500000e+02	1.84422571e-01
5.34500000e+02	1.83055566e-01
5.35500000e+02	1.81743090e-01
5.36500000e+02	1.80482994e-01
5.37500000e+02	1.79273204e-01
5.38500000e+02	1.78111722e-01
5.39500000e+02	1.76996623e-01
5.40500000e+02	1.75926056e-01
5.41500000e+02	1.74898237e-01
5.42500000e+02	1.73911454e-01
5.43500000e+02	1.72964061e-01
5.44500000e+02	1.72054475e-01
5.45500000e+02	1.71181176e-01
5.46500000e+02	1.70342707e-01
5.47500000e+02	1.69537665e-01
5.48500000e+02	1.68764708e-01
5.49500000e+02	1.68022542e-01
5.50500000e+02	1.67309932e-01
5.51500000e+02	1.66625687e-01
5.52500000e+02	1.65968668e-01
5.53500000e+02	1.65337780e-01
5.54500000e+02	1.64731975e-01
5.55500000e+02	1.64150244e-01
5.56500000e+02	1.63591621e-01
5.57500000e+02	1.63055180e-01
5.58500000e+02	1.62540032e-01
5.59500000e+02	1.62045322e-01
5.60500000e+02	1.61570234e-01
5.61500000e+02	1.61113980e-01
5.62500000e+02	1.60675808e-01
5.63500000e+02	1.60254995e-01
5.64500000e+02	1.59850848e-01
5.65500000e+02	1.59462700e-01
5.66500000e+02	1.59089914e-01
5.67500000e+02	1.58731876e-01
5.68500000e+02	1.58387998e-01
5.69500000e+02	1.58057717e-01
5.70500000e+02	1.57740491e-01
5.71500000e+02	1.57435800e-01
5.72500000e+02	1.57143145e-01
5.73500000e+02	1.56862048e-01
5.74500000e+02	1.56592050e-01
5.75500000e+02	1.56332709e-01
5.76500000e+02	1.56083603e-01
5.77500000e+02	1.55844325e-01
5.78500000e+02	1.55614484e-01
5.79500000e+02	1.55393708e-01
5.80500000e+02	1.55181637e-01
5.81500000e+02	1.54977925e-01
5.82500000e+02	1.54782242e-01
5.83500000e+02	1.54594269e-01
5.84500000e+02	1.54413702e-01
5.85500000e+02	1.54240247e-01
5.86500000e+02	1.54073623e-01
5.87500000e+02	1.53913561e-01
5.88500000e+02	1.53759800e-01
5.89500000e+02	1.53612091e-01
5.90500000e+02	1.53470196e-01
5.91500000e+02	1.53333885e-01
5.92500000e+02	1.53202937e-01
5.93500000e+02	1.53077141e-01
5.94500000e+02	1.52956294e-01
5.95500000e+02	1.52840199e-01
5.96500000e+02	1.52728670e-01
5.97500000e+02	1.52621527e-01
5.98500000e+02	1.52518597e-01
5.99500000e+02	1.52419713e-01
6.00500000e+02	1.52324716e-01
6.01500000e+02	1.52233453e-01
6.02500000e+02	1.52145777e-01
6.03500000e+02	1.52061546e-01
6.04500000e+02	1.51980626e-01
6.05500000e+02	1.51902885e-01
6.06500000e+02	1.51828198e-01
6.07500000e+02	1.51756446e-01
6.08500000e+02	1.51687512e-01
6.09500000e+02	1.51621286e-01
6.10500000e+02	1.51557661e-01
6.11500000e+02	1.51496535e-01
6.12500000e+02	1.51437809e-01
6.13500000e+02	1.51381390e-01
6.14500000e+02	1.51327186e-01
6.15500000e+02	1.51275110e-01
6.16500000e+02	1.51225080e-01
6.17500000e+02	1.51177013e-01
6.18500000e+02	1.51130834e-01
6.19500000e+02	1.51086467e-01
6.20500000e+02	1.51043842e-01
6.21500000e+02	1.51002890e-01
6.22500000e+02	1.50963546e-01
6.23500000e+02	1.50925746e-01
6.24500000e+02	1.50889429e-01
6.25500000e+02	1.50854538e-01
6.26500000e+02	1.50821016e-01
6.27500000e+02	1.50788810e-01
6.28500000e+02	1.50757868e-01
6.29500000e+02	1.50728140e-01
6.30500000e+02	1.50699578e-01
6.31500000e+02	1.50672137e-01
6.32500000e+02	1.50645773e-01
6.33500000e+02	1.50620443e-01
6.34500000e+02	1.50596108e-01
6.35500000e+02	1.50572727e-01
6.36500000e+02	1.50550263e-01
6.37500000e+02	1.50528681e-01
6.38500000e+02	1.50507945e-01
6.39500000e+02	1.50488023e-01
6.40500000e+02	1.50468883e-01
6.41500000e+02	1.50450493e-01
6.42500000e+02	1.50432825e-01
6.43500000e+02	1.50415850e-01
6.44500000e+02	1.50399540e-01
6.45500000e+02	1.50383871e-01
6.46500000e+02	1.50368816e-01
6.47500000e+02	1.50354352e-01
6.48500000e+02	1.50340455e-01
6.49500000e+02	1.50327103e-01
6.50500000e+02	1.50314275e-01
6.51500000e+02	1.50301950e-01
6.52500000e+02	1.50290109e-01
6.53500000e+02	1.50278732e-01
6.54500000e+02	1.50267801e-01
6.55500000e+02	1.50257299e-01
6.56500000e+02	1.50247209e-01
6.57500000e+02	1.50237514e-01
6.58500000e+02	1.50228200e-01
6.59500000e+02	1.50219251e-01
6.60500000e+02	1.50210653e-01
