# Profil de Te au temps 1.600999999999999e-11 
# simu : /Volumes/MERCURE/JOBS/Zeq2_tanh_50mic_2p1e19_B0_20ps/GNU/Te@y-c.set
# col 0 : abscisse (um)
# col 1 : Te (keV)
5.00000000e-01	9.77282834e-01
1.50000000e+00	9.77279379e-01
2.50000000e+00	9.77272568e-01
3.50000000e+00	9.77262358e-01
4.50000000e+00	9.77248715e-01
5.50000000e+00	9.77231664e-01
6.50000000e+00	9.77211203e-01
7.50000000e+00	9.77187334e-01
8.50000000e+00	9.77160057e-01
9.50000000e+00	9.77129373e-01
1.05000000e+01	9.77095282e-01
1.15000000e+01	9.77057786e-01
1.25000000e+01	9.77016885e-01
1.35000000e+01	9.76972582e-01
1.45000000e+01	9.76924877e-01
1.55000000e+01	9.76873771e-01
1.65000000e+01	9.76819266e-01
1.75000000e+01	9.76761364e-01
1.85000000e+01	9.76700066e-01
1.95000000e+01	9.76635374e-01
2.05000000e+01	9.76567290e-01
2.15000000e+01	9.76495815e-01
2.25000000e+01	9.76420952e-01
2.35000000e+01	9.76342704e-01
2.45000000e+01	9.76261071e-01
2.55000000e+01	9.76176056e-01
2.65000000e+01	9.76087662e-01
2.75000000e+01	9.75995892e-01
2.85000000e+01	9.75900747e-01
2.95000000e+01	9.75802231e-01
3.05000000e+01	9.75700346e-01
3.15000000e+01	9.75595095e-01
3.25000000e+01	9.75486481e-01
3.35000000e+01	9.75374507e-01
3.45000000e+01	9.75259176e-01
3.55000000e+01	9.75140491e-01
3.65000000e+01	9.75018456e-01
3.75000000e+01	9.74893073e-01
3.85000000e+01	9.74764348e-01
3.95000000e+01	9.74632282e-01
4.05000000e+01	9.74496879e-01
4.15000000e+01	9.74358143e-01
4.25000000e+01	9.74216079e-01
4.35000000e+01	9.74070689e-01
4.45000000e+01	9.73921978e-01
4.55000000e+01	9.73769950e-01
4.65000000e+01	9.73614608e-01
4.75000000e+01	9.73455957e-01
4.85000000e+01	9.73294002e-01
4.95000000e+01	9.73128745e-01
5.05000000e+01	9.72960193e-01
5.15000000e+01	9.72788349e-01
5.25000000e+01	9.72613218e-01
5.35000000e+01	9.72434804e-01
5.45000000e+01	9.72253113e-01
5.55000000e+01	9.72068148e-01
5.65000000e+01	9.71879915e-01
5.75000000e+01	9.71688418e-01
5.85000000e+01	9.71493663e-01
5.95000000e+01	9.71295654e-01
6.05000000e+01	9.71094397e-01
6.15000000e+01	9.70889896e-01
6.25000000e+01	9.70682158e-01
6.35000000e+01	9.70471186e-01
6.45000000e+01	9.70256987e-01
6.55000000e+01	9.70039566e-01
6.65000000e+01	9.69818928e-01
6.75000000e+01	9.69595078e-01
6.85000000e+01	9.69368024e-01
6.95000000e+01	9.69137769e-01
7.05000000e+01	9.68904319e-01
7.15000000e+01	9.68667681e-01
7.25000000e+01	9.68427860e-01
7.35000000e+01	9.68184862e-01
7.45000000e+01	9.67938693e-01
7.55000000e+01	9.67689358e-01
7.65000000e+01	9.67436864e-01
7.75000000e+01	9.67181217e-01
7.85000000e+01	9.66922422e-01
7.95000000e+01	9.66660487e-01
8.05000000e+01	9.66395416e-01
8.15000000e+01	9.66127217e-01
8.25000000e+01	9.65855895e-01
8.35000000e+01	9.65581457e-01
8.45000000e+01	9.65303909e-01
8.55000000e+01	9.65023258e-01
8.65000000e+01	9.64739509e-01
8.75000000e+01	9.64452670e-01
8.85000000e+01	9.64162747e-01
8.95000000e+01	9.63869746e-01
9.05000000e+01	9.63573674e-01
9.15000000e+01	9.63274537e-01
9.25000000e+01	9.62972343e-01
9.35000000e+01	9.62667097e-01
9.45000000e+01	9.62358807e-01
9.55000000e+01	9.62047479e-01
9.65000000e+01	9.61733120e-01
9.75000000e+01	9.61415737e-01
9.85000000e+01	9.61095336e-01
9.95000000e+01	9.60771925e-01
1.00500000e+02	9.60445510e-01
1.01500000e+02	9.60116098e-01
1.02500000e+02	9.59783696e-01
1.03500000e+02	9.59448311e-01
1.04500000e+02	9.59109950e-01
1.05500000e+02	9.58768621e-01
1.06500000e+02	9.58424329e-01
1.07500000e+02	9.58077082e-01
1.08500000e+02	9.57726887e-01
1.09500000e+02	9.57373751e-01
1.10500000e+02	9.57017682e-01
1.11500000e+02	9.56658686e-01
1.12500000e+02	9.56296770e-01
1.13500000e+02	9.55931942e-01
1.14500000e+02	9.55564209e-01
1.15500000e+02	9.55193578e-01
1.16500000e+02	9.54820055e-01
1.17500000e+02	9.54443650e-01
1.18500000e+02	9.54064367e-01
1.19500000e+02	9.53682216e-01
1.20500000e+02	9.53297203e-01
1.21500000e+02	9.52909334e-01
1.22500000e+02	9.52518619e-01
1.23500000e+02	9.52125063e-01
1.24500000e+02	9.51728675e-01
1.25500000e+02	9.51329461e-01
1.26500000e+02	9.50927429e-01
1.27500000e+02	9.50522585e-01
1.28500000e+02	9.50114939e-01
1.29500000e+02	9.49704496e-01
1.30500000e+02	9.49291264e-01
1.31500000e+02	9.48875251e-01
1.32500000e+02	9.48456463e-01
1.33500000e+02	9.48034909e-01
1.34500000e+02	9.47610595e-01
1.35500000e+02	9.47183529e-01
1.36500000e+02	9.46753718e-01
1.37500000e+02	9.46321171e-01
1.38500000e+02	9.45885893e-01
1.39500000e+02	9.45447893e-01
1.40500000e+02	9.45007177e-01
1.41500000e+02	9.44563754e-01
1.42500000e+02	9.44117631e-01
1.43500000e+02	9.43668815e-01
1.44500000e+02	9.43217314e-01
1.45500000e+02	9.42763134e-01
1.46500000e+02	9.42306284e-01
1.47500000e+02	9.41846770e-01
1.48500000e+02	9.41384601e-01
1.49500000e+02	9.40919784e-01
1.50500000e+02	9.40452325e-01
1.51500000e+02	9.39982234e-01
1.52500000e+02	9.39509516e-01
1.53500000e+02	9.39034179e-01
1.54500000e+02	9.38556231e-01
1.55500000e+02	9.38075679e-01
1.56500000e+02	9.37592531e-01
1.57500000e+02	9.37106794e-01
1.58500000e+02	9.36618476e-01
1.59500000e+02	9.36127583e-01
1.60500000e+02	9.35634124e-01
1.61500000e+02	9.35138105e-01
1.62500000e+02	9.34639535e-01
1.63500000e+02	9.34138420e-01
1.64500000e+02	9.33634768e-01
1.65500000e+02	9.33128587e-01
1.66500000e+02	9.32619883e-01
1.67500000e+02	9.32108665e-01
1.68500000e+02	9.31594939e-01
1.69500000e+02	9.31078713e-01
1.70500000e+02	9.30559994e-01
1.71500000e+02	9.30038790e-01
1.72500000e+02	9.29515109e-01
1.73500000e+02	9.28988957e-01
1.74500000e+02	9.28460342e-01
1.75500000e+02	9.27929271e-01
1.76500000e+02	9.27395751e-01
1.77500000e+02	9.26859791e-01
1.78500000e+02	9.26321397e-01
1.79500000e+02	9.25780577e-01
1.80500000e+02	9.25237337e-01
1.81500000e+02	9.24691686e-01
1.82500000e+02	9.24143631e-01
1.83500000e+02	9.23593179e-01
1.84500000e+02	9.23040336e-01
1.85500000e+02	9.22485112e-01
1.86500000e+02	9.21927512e-01
1.87500000e+02	9.21367544e-01
1.88500000e+02	9.20805215e-01
1.89500000e+02	9.20240533e-01
1.90500000e+02	9.19673505e-01
1.91500000e+02	9.19104138e-01
1.92500000e+02	9.18532439e-01
1.93500000e+02	9.17958415e-01
1.94500000e+02	9.17382073e-01
1.95500000e+02	9.16803421e-01
1.96500000e+02	9.16222466e-01
1.97500000e+02	9.15639215e-01
1.98500000e+02	9.15053675e-01
1.99500000e+02	9.14465852e-01
2.00500000e+02	9.13875754e-01
2.01500000e+02	9.13283388e-01
2.02500000e+02	9.12688762e-01
2.03500000e+02	9.12091880e-01
2.04500000e+02	9.11492752e-01
2.05500000e+02	9.10891383e-01
2.06500000e+02	9.10287781e-01
2.07500000e+02	9.09681951e-01
2.08500000e+02	9.09073902e-01
2.09500000e+02	9.08463639e-01
2.10500000e+02	9.07851170e-01
2.11500000e+02	9.07236500e-01
2.12500000e+02	9.06619637e-01
2.13500000e+02	9.06000587e-01
2.14500000e+02	9.05379357e-01
2.15500000e+02	9.04755952e-01
2.16500000e+02	9.04130380e-01
2.17500000e+02	9.03502646e-01
2.18500000e+02	9.02872757e-01
2.19500000e+02	9.02240719e-01
2.20500000e+02	9.01606538e-01
2.21500000e+02	9.00970219e-01
2.22500000e+02	9.00331770e-01
2.23500000e+02	8.99691196e-01
2.24500000e+02	8.99048501e-01
2.25500000e+02	8.98403693e-01
2.26500000e+02	8.97756777e-01
2.27500000e+02	8.97107758e-01
2.28500000e+02	8.96456641e-01
2.29500000e+02	8.95803432e-01
2.30500000e+02	8.95148136e-01
2.31500000e+02	8.94490758e-01
2.32500000e+02	8.93831302e-01
2.33500000e+02	8.93169773e-01
2.34500000e+02	8.92506177e-01
2.35500000e+02	8.91840517e-01
2.36500000e+02	8.91172798e-01
2.37500000e+02	8.90503023e-01
2.38500000e+02	8.89831198e-01
2.39500000e+02	8.89157325e-01
2.40500000e+02	8.88481408e-01
2.41500000e+02	8.87803450e-01
2.42500000e+02	8.87123455e-01
2.43500000e+02	8.86441427e-01
2.44500000e+02	8.85757366e-01
2.45500000e+02	8.85071277e-01
2.46500000e+02	8.84383161e-01
2.47500000e+02	8.83693021e-01
2.48500000e+02	8.83000858e-01
2.49500000e+02	8.82306673e-01
2.50500000e+02	8.81610469e-01
2.51500000e+02	8.80912246e-01
2.52500000e+02	8.80212005e-01
2.53500000e+02	8.79509746e-01
2.54500000e+02	8.78805469e-01
2.55500000e+02	8.78099174e-01
2.56500000e+02	8.77390861e-01
2.57500000e+02	8.76680527e-01
2.58500000e+02	8.75968173e-01
2.59500000e+02	8.75253796e-01
2.60500000e+02	8.74537394e-01
2.61500000e+02	8.73818964e-01
2.62500000e+02	8.73098504e-01
2.63500000e+02	8.72376009e-01
2.64500000e+02	8.71651477e-01
2.65500000e+02	8.70924903e-01
2.66500000e+02	8.70196281e-01
2.67500000e+02	8.69465607e-01
2.68500000e+02	8.68732874e-01
2.69500000e+02	8.67998076e-01
2.70500000e+02	8.67261206e-01
2.71500000e+02	8.66522256e-01
2.72500000e+02	8.65781219e-01
2.73500000e+02	8.65038084e-01
2.74500000e+02	8.64292843e-01
2.75500000e+02	8.63545485e-01
2.76500000e+02	8.62796000e-01
2.77500000e+02	8.62044376e-01
2.78500000e+02	8.61290601e-01
2.79500000e+02	8.60534661e-01
2.80500000e+02	8.59776543e-01
2.81500000e+02	8.59016232e-01
2.82500000e+02	8.58253713e-01
2.83500000e+02	8.57488970e-01
2.84500000e+02	8.56721985e-01
2.85500000e+02	8.55952740e-01
2.86500000e+02	8.55181216e-01
2.87500000e+02	8.54407394e-01
2.88500000e+02	8.53631253e-01
2.89500000e+02	8.52852771e-01
2.90500000e+02	8.52071924e-01
2.91500000e+02	8.51288690e-01
2.92500000e+02	8.50503043e-01
2.93500000e+02	8.49714958e-01
2.94500000e+02	8.48924406e-01
2.95500000e+02	8.48131361e-01
2.96500000e+02	8.47335792e-01
2.97500000e+02	8.46537668e-01
2.98500000e+02	8.45736959e-01
2.99500000e+02	8.44933631e-01
3.00500000e+02	8.44127649e-01
3.01500000e+02	8.43318979e-01
3.02500000e+02	8.42507582e-01
3.03500000e+02	8.41693421e-01
3.04500000e+02	8.40876456e-01
3.05500000e+02	8.40056646e-01
3.06500000e+02	8.39233949e-01
3.07500000e+02	8.38408320e-01
3.08500000e+02	8.37579714e-01
3.09500000e+02	8.36748084e-01
3.10500000e+02	8.35913381e-01
3.11500000e+02	8.35075556e-01
3.12500000e+02	8.34234558e-01
3.13500000e+02	8.33390332e-01
3.14500000e+02	8.32542824e-01
3.15500000e+02	8.31691977e-01
3.16500000e+02	8.30837734e-01
3.17500000e+02	8.29980034e-01
3.18500000e+02	8.29118817e-01
3.19500000e+02	8.28254018e-01
3.20500000e+02	8.27385573e-01
3.21500000e+02	8.26513415e-01
3.22500000e+02	8.25637475e-01
3.23500000e+02	8.24757683e-01
3.24500000e+02	8.23873968e-01
3.25500000e+02	8.22986254e-01
3.26500000e+02	8.22094467e-01
3.27500000e+02	8.21198528e-01
3.28500000e+02	8.20298358e-01
3.29500000e+02	8.19393876e-01
3.30500000e+02	8.18484998e-01
3.31500000e+02	8.17571639e-01
3.32500000e+02	8.16653712e-01
3.33500000e+02	8.15731128e-01
3.34500000e+02	8.14803797e-01
3.35500000e+02	8.13871625e-01
3.36500000e+02	8.12934518e-01
3.37500000e+02	8.11992380e-01
3.38500000e+02	8.11045112e-01
3.39500000e+02	8.10092613e-01
3.40500000e+02	8.09134782e-01
3.41500000e+02	8.08171515e-01
3.42500000e+02	8.07202705e-01
3.43500000e+02	8.06228245e-01
3.44500000e+02	8.05248026e-01
3.45500000e+02	8.04261936e-01
3.46500000e+02	8.03269862e-01
3.47500000e+02	8.02271689e-01
3.48500000e+02	8.01267301e-01
3.49500000e+02	8.00256579e-01
3.50500000e+02	7.99239404e-01
3.51500000e+02	7.98215653e-01
3.52500000e+02	7.97185204e-01
3.53500000e+02	7.96147931e-01
3.54500000e+02	7.95103709e-01
3.55500000e+02	7.94052409e-01
3.56500000e+02	7.92993902e-01
3.57500000e+02	7.91928058e-01
3.58500000e+02	7.90854743e-01
3.59500000e+02	7.89773826e-01
3.60500000e+02	7.88685170e-01
3.61500000e+02	7.87588640e-01
3.62500000e+02	7.86484099e-01
3.63500000e+02	7.85371409e-01
3.64500000e+02	7.84250429e-01
3.65500000e+02	7.83121021e-01
3.66500000e+02	7.81983041e-01
3.67500000e+02	7.80836349e-01
3.68500000e+02	7.79680801e-01
3.69500000e+02	7.78516254e-01
3.70500000e+02	7.77342562e-01
3.71500000e+02	7.76159580e-01
3.72500000e+02	7.74967164e-01
3.73500000e+02	7.73765166e-01
3.74500000e+02	7.72553440e-01
3.75500000e+02	7.71331840e-01
3.76500000e+02	7.70100217e-01
3.77500000e+02	7.68858424e-01
3.78500000e+02	7.67606314e-01
3.79500000e+02	7.66343739e-01
3.80500000e+02	7.65070551e-01
3.81500000e+02	7.63786603e-01
3.82500000e+02	7.62491748e-01
3.83500000e+02	7.61185838e-01
3.84500000e+02	7.59868727e-01
3.85500000e+02	7.58540269e-01
3.86500000e+02	7.57200317e-01
3.87500000e+02	7.55848728e-01
3.88500000e+02	7.54485356e-01
3.89500000e+02	7.53110057e-01
3.90500000e+02	7.51722691e-01
3.91500000e+02	7.50323114e-01
3.92500000e+02	7.48911186e-01
3.93500000e+02	7.47486768e-01
3.94500000e+02	7.46049722e-01
3.95500000e+02	7.44599911e-01
3.96500000e+02	7.43137200e-01
3.97500000e+02	7.41661456e-01
3.98500000e+02	7.40172547e-01
3.99500000e+02	7.38670343e-01
4.00500000e+02	7.37154716e-01
4.01500000e+02	7.35625540e-01
4.02500000e+02	7.34082692e-01
4.03500000e+02	7.32526050e-01
4.04500000e+02	7.30955495e-01
4.05500000e+02	7.29370911e-01
4.06500000e+02	7.27772184e-01
4.07500000e+02	7.26159204e-01
4.08500000e+02	7.24531863e-01
4.09500000e+02	7.22890055e-01
4.10500000e+02	7.21233680e-01
4.11500000e+02	7.19562639e-01
4.12500000e+02	7.17876838e-01
4.13500000e+02	7.16176185e-01
4.14500000e+02	7.14460594e-01
4.15500000e+02	7.12729981e-01
4.16500000e+02	7.10984267e-01
4.17500000e+02	7.09223378e-01
4.18500000e+02	7.07447242e-01
4.19500000e+02	7.05655795e-01
4.20500000e+02	7.03848974e-01
4.21500000e+02	7.02026723e-01
4.22500000e+02	7.00188991e-01
4.23500000e+02	6.98335731e-01
4.24500000e+02	6.96466904e-01
4.25500000e+02	6.94582472e-01
4.26500000e+02	6.92682406e-01
4.27500000e+02	6.90766681e-01
4.28500000e+02	6.88835280e-01
4.29500000e+02	6.86888190e-01
4.30500000e+02	6.84925404e-01
4.31500000e+02	6.82946923e-01
4.32500000e+02	6.80952752e-01
4.33500000e+02	6.78942904e-01
4.34500000e+02	6.76917399e-01
4.35500000e+02	6.74876262e-01
4.36500000e+02	6.72819527e-01
4.37500000e+02	6.70747234e-01
4.38500000e+02	6.68659428e-01
4.39500000e+02	6.66556163e-01
4.40500000e+02	6.64437501e-01
4.41500000e+02	6.62303508e-01
4.42500000e+02	6.60154262e-01
4.43500000e+02	6.57989843e-01
4.44500000e+02	6.55810341e-01
4.45500000e+02	6.53615854e-01
4.46500000e+02	6.51406486e-01
4.47500000e+02	6.49182348e-01
4.48500000e+02	6.46943559e-01
4.49500000e+02	6.44690245e-01
4.50500000e+02	6.42422539e-01
4.51500000e+02	6.40140582e-01
4.52500000e+02	6.37844521e-01
4.53500000e+02	6.35534510e-01
4.54500000e+02	6.33210710e-01
4.55500000e+02	6.30873289e-01
4.56500000e+02	6.28522423e-01
4.57500000e+02	6.26158291e-01
4.58500000e+02	6.23781082e-01
4.59500000e+02	6.21390989e-01
4.60500000e+02	6.18988211e-01
4.61500000e+02	6.16572954e-01
4.62500000e+02	6.14145430e-01
4.63500000e+02	6.11705854e-01
4.64500000e+02	6.09254449e-01
4.65500000e+02	6.06791440e-01
4.66500000e+02	6.04317061e-01
4.67500000e+02	6.01831546e-01
4.68500000e+02	5.99335136e-01
4.69500000e+02	5.96828076e-01
4.70500000e+02	5.94310614e-01
4.71500000e+02	5.91783001e-01
4.72500000e+02	5.89245494e-01
4.73500000e+02	5.86698350e-01
4.74500000e+02	5.84141830e-01
4.75500000e+02	5.81576198e-01
4.76500000e+02	5.79001720e-01
4.77500000e+02	5.76418664e-01
4.78500000e+02	5.73827300e-01
4.79500000e+02	5.71227901e-01
4.80500000e+02	5.68620738e-01
4.81500000e+02	5.66006087e-01
4.82500000e+02	5.63384224e-01
4.83500000e+02	5.60755424e-01
4.84500000e+02	5.58119966e-01
4.85500000e+02	5.55478127e-01
4.86500000e+02	5.52830186e-01
4.87500000e+02	5.50176422e-01
4.88500000e+02	5.47517115e-01
4.89500000e+02	5.44852543e-01
4.90500000e+02	5.42182988e-01
4.91500000e+02	5.39508730e-01
4.92500000e+02	5.36830048e-01
4.93500000e+02	5.34147224e-01
4.94500000e+02	5.31460540e-01
4.95500000e+02	5.28770276e-01
4.96500000e+02	5.26076715e-01
4.97500000e+02	5.23380140e-01
4.98500000e+02	5.20680834e-01
4.99500000e+02	5.17979081e-01
5.00500000e+02	5.15275166e-01
5.01500000e+02	5.12569377e-01
5.02500000e+02	5.09862001e-01
5.03500000e+02	5.07153327e-01
5.04500000e+02	5.04443649e-01
5.05500000e+02	5.01733258e-01
5.06500000e+02	4.99022451e-01
5.07500000e+02	4.96311527e-01
5.08500000e+02	4.93600787e-01
5.09500000e+02	4.90890535e-01
5.10500000e+02	4.88181080e-01
5.11500000e+02	4.85472732e-01
5.12500000e+02	4.82765809e-01
5.13500000e+02	4.80060628e-01
5.14500000e+02	4.77357515e-01
5.15500000e+02	4.74656798e-01
5.16500000e+02	4.71958811e-01
5.17500000e+02	4.69263892e-01
5.18500000e+02	4.66572386e-01
5.19500000e+02	4.63884641e-01
5.20500000e+02	4.61201013e-01
5.21500000e+02	4.58521863e-01
5.22500000e+02	4.55847557e-01
5.23500000e+02	4.53178468e-01
5.24500000e+02	4.50514974e-01
5.25500000e+02	4.47857459e-01
5.26500000e+02	4.45206315e-01
5.27500000e+02	4.42561937e-01
5.28500000e+02	4.39924727e-01
5.29500000e+02	4.37295094e-01
5.30500000e+02	4.34673449e-01
5.31500000e+02	4.32060213e-01
5.32500000e+02	4.29455807e-01
5.33500000e+02	4.26860661e-01
5.34500000e+02	4.24275208e-01
5.35500000e+02	4.21699883e-01
5.36500000e+02	4.19135128e-01
5.37500000e+02	4.16581386e-01
5.38500000e+02	4.14039103e-01
5.39500000e+02	4.11508729e-01
5.40500000e+02	4.08990713e-01
5.41500000e+02	4.06485506e-01
5.42500000e+02	4.03993561e-01
5.43500000e+02	4.01515329e-01
5.44500000e+02	3.99051261e-01
5.45500000e+02	3.96601806e-01
5.46500000e+02	3.94167410e-01
5.47500000e+02	3.91748518e-01
5.48500000e+02	3.89345570e-01
5.49500000e+02	3.86959001e-01
5.50500000e+02	3.84589241e-01
5.51500000e+02	3.82236714e-01
5.52500000e+02	3.79901839e-01
5.53500000e+02	3.77585024e-01
5.54500000e+02	3.75286670e-01
5.55500000e+02	3.73007170e-01
5.56500000e+02	3.70746906e-01
5.57500000e+02	3.68506250e-01
5.58500000e+02	3.66285562e-01
5.59500000e+02	3.64085190e-01
5.60500000e+02	3.61905470e-01
5.61500000e+02	3.59746726e-01
5.62500000e+02	3.57609265e-01
5.63500000e+02	3.55493383e-01
5.64500000e+02	3.53399359e-01
5.65500000e+02	3.51327459e-01
5.66500000e+02	3.49277932e-01
5.67500000e+02	3.47251011e-01
5.68500000e+02	3.45246914e-01
5.69500000e+02	3.43265841e-01
5.70500000e+02	3.41307977e-01
5.71500000e+02	3.39373490e-01
5.72500000e+02	3.37462530e-01
5.73500000e+02	3.35575231e-01
5.74500000e+02	3.33711712e-01
5.75500000e+02	3.31872073e-01
5.76500000e+02	3.30056397e-01
5.77500000e+02	3.28264753e-01
5.78500000e+02	3.26497193e-01
5.79500000e+02	3.24753752e-01
5.80500000e+02	3.23034450e-01
5.81500000e+02	3.21339292e-01
5.82500000e+02	3.19668268e-01
5.83500000e+02	3.18021354e-01
5.84500000e+02	3.16398510e-01
5.85500000e+02	3.14799686e-01
5.86500000e+02	3.13224816e-01
5.87500000e+02	3.11673821e-01
5.88500000e+02	3.10146613e-01
5.89500000e+02	3.08643090e-01
5.90500000e+02	3.07163139e-01
5.91500000e+02	3.05706638e-01
5.92500000e+02	3.04273454e-01
5.93500000e+02	3.02863446e-01
5.94500000e+02	3.01476461e-01
5.95500000e+02	3.00112343e-01
5.96500000e+02	2.98770923e-01
5.97500000e+02	2.97452029e-01
5.98500000e+02	2.96155480e-01
5.99500000e+02	2.94881091e-01
6.00500000e+02	2.93628669e-01
6.01500000e+02	2.92398018e-01
6.02500000e+02	2.91188936e-01
6.03500000e+02	2.90001219e-01
6.04500000e+02	2.88834658e-01
6.05500000e+02	2.87689041e-01
6.06500000e+02	2.86564153e-01
6.07500000e+02	2.85459776e-01
6.08500000e+02	2.84375693e-01
6.09500000e+02	2.83311682e-01
6.10500000e+02	2.82267521e-01
6.11500000e+02	2.81242988e-01
6.12500000e+02	2.80237859e-01
6.13500000e+02	2.79251910e-01
6.14500000e+02	2.78284916e-01
6.15500000e+02	2.77336653e-01
6.16500000e+02	2.76406898e-01
6.17500000e+02	2.75495427e-01
6.18500000e+02	2.74602017e-01
6.19500000e+02	2.73726447e-01
6.20500000e+02	2.72868495e-01
6.21500000e+02	2.72027941e-01
6.22500000e+02	2.71204568e-01
6.23500000e+02	2.70398157e-01
6.24500000e+02	2.69608493e-01
6.25500000e+02	2.68835360e-01
6.26500000e+02	2.68078548e-01
6.27500000e+02	2.67337843e-01
6.28500000e+02	2.66613036e-01
6.29500000e+02	2.65903920e-01
6.30500000e+02	2.65210288e-01
6.31500000e+02	2.64531936e-01
6.32500000e+02	2.63868661e-01
6.33500000e+02	2.63220262e-01
6.34500000e+02	2.62586539e-01
6.35500000e+02	2.61967296e-01
6.36500000e+02	2.61362337e-01
6.37500000e+02	2.60771468e-01
6.38500000e+02	2.60194497e-01
6.39500000e+02	2.59631234e-01
6.40500000e+02	2.59081490e-01
6.41500000e+02	2.58545080e-01
6.42500000e+02	2.58021817e-01
6.43500000e+02	2.57511519e-01
6.44500000e+02	2.57014005e-01
6.45500000e+02	2.56529094e-01
6.46500000e+02	2.56056611e-01
6.47500000e+02	2.55596377e-01
6.48500000e+02	2.55148221e-01
6.49500000e+02	2.54711968e-01
6.50500000e+02	2.54287449e-01
6.51500000e+02	2.53874495e-01
6.52500000e+02	2.53472940e-01
6.53500000e+02	2.53082619e-01
6.54500000e+02	2.52703368e-01
6.55500000e+02	2.52335028e-01
6.56500000e+02	2.51977438e-01
6.57500000e+02	2.51630442e-01
6.58500000e+02	2.51293885e-01
6.59500000e+02	2.50967615e-01
6.60500000e+02	2.50651480e-01
