# Profil de Te au temps 1.800999999999969e-11 
# simu : /Volumes/MERCURE/JOBS/Zeq2_tanh_50mic_2p1e19_B0_20ps/GNU/Te@y-c.set
# col 0 : abscisse (um)
# col 1 : Te (keV)
5.00000000e-01	9.59596375e-01
1.50000000e+00	9.59593000e-01
2.50000000e+00	9.59586438e-01
3.50000000e+00	9.59576610e-01
4.50000000e+00	9.59563448e-01
5.50000000e+00	9.59547000e-01
6.50000000e+00	9.59527265e-01
7.50000000e+00	9.59504241e-01
8.50000000e+00	9.59477931e-01
9.50000000e+00	9.59448335e-01
1.05000000e+01	9.59415454e-01
1.15000000e+01	9.59379290e-01
1.25000000e+01	9.59339842e-01
1.35000000e+01	9.59297114e-01
1.45000000e+01	9.59251105e-01
1.55000000e+01	9.59201819e-01
1.65000000e+01	9.59149256e-01
1.75000000e+01	9.59093418e-01
1.85000000e+01	9.59034307e-01
1.95000000e+01	9.58971925e-01
2.05000000e+01	9.58906275e-01
2.15000000e+01	9.58837358e-01
2.25000000e+01	9.58765177e-01
2.35000000e+01	9.58689734e-01
2.45000000e+01	9.58611032e-01
2.55000000e+01	9.58529073e-01
2.65000000e+01	9.58443860e-01
2.75000000e+01	9.58355397e-01
2.85000000e+01	9.58263685e-01
2.95000000e+01	9.58168729e-01
3.05000000e+01	9.58070530e-01
3.15000000e+01	9.57969093e-01
3.25000000e+01	9.57864421e-01
3.35000000e+01	9.57756518e-01
3.45000000e+01	9.57645386e-01
3.55000000e+01	9.57531030e-01
3.65000000e+01	9.57413454e-01
3.75000000e+01	9.57292660e-01
3.85000000e+01	9.57168655e-01
3.95000000e+01	9.57041440e-01
4.05000000e+01	9.56911021e-01
4.15000000e+01	9.56777402e-01
4.25000000e+01	9.56640588e-01
4.35000000e+01	9.56500582e-01
4.45000000e+01	9.56357390e-01
4.55000000e+01	9.56211016e-01
4.65000000e+01	9.56061464e-01
4.75000000e+01	9.55908740e-01
4.85000000e+01	9.55752849e-01
4.95000000e+01	9.55593796e-01
5.05000000e+01	9.55431586e-01
5.15000000e+01	9.55266223e-01
5.25000000e+01	9.55097715e-01
5.35000000e+01	9.54926065e-01
5.45000000e+01	9.54751279e-01
5.55000000e+01	9.54573364e-01
5.65000000e+01	9.54392324e-01
5.75000000e+01	9.54208166e-01
5.85000000e+01	9.54020895e-01
5.95000000e+01	9.53830518e-01
6.05000000e+01	9.53637040e-01
6.15000000e+01	9.53440467e-01
6.25000000e+01	9.53240806e-01
6.35000000e+01	9.53038063e-01
6.45000000e+01	9.52832244e-01
6.55000000e+01	9.52623356e-01
6.65000000e+01	9.52411405e-01
6.75000000e+01	9.52196399e-01
6.85000000e+01	9.51978342e-01
6.95000000e+01	9.51757243e-01
7.05000000e+01	9.51533109e-01
7.15000000e+01	9.51305945e-01
7.25000000e+01	9.51075759e-01
7.35000000e+01	9.50842559e-01
7.45000000e+01	9.50606350e-01
7.55000000e+01	9.50367141e-01
7.65000000e+01	9.50124939e-01
7.75000000e+01	9.49879751e-01
7.85000000e+01	9.49631584e-01
7.95000000e+01	9.49380446e-01
8.05000000e+01	9.49126344e-01
8.15000000e+01	9.48869287e-01
8.25000000e+01	9.48609281e-01
8.35000000e+01	9.48346335e-01
8.45000000e+01	9.48080456e-01
8.55000000e+01	9.47811651e-01
8.65000000e+01	9.47539930e-01
8.75000000e+01	9.47265300e-01
8.85000000e+01	9.46987769e-01
8.95000000e+01	9.46707345e-01
9.05000000e+01	9.46424036e-01
9.15000000e+01	9.46137850e-01
9.25000000e+01	9.45848797e-01
9.35000000e+01	9.45556883e-01
9.45000000e+01	9.45262117e-01
9.55000000e+01	9.44964508e-01
9.65000000e+01	9.44664065e-01
9.75000000e+01	9.44360795e-01
9.85000000e+01	9.44054708e-01
9.95000000e+01	9.43745811e-01
1.00500000e+02	9.43434114e-01
1.01500000e+02	9.43119625e-01
1.02500000e+02	9.42802353e-01
1.03500000e+02	9.42482307e-01
1.04500000e+02	9.42159496e-01
1.05500000e+02	9.41833928e-01
1.06500000e+02	9.41505613e-01
1.07500000e+02	9.41174558e-01
1.08500000e+02	9.40840774e-01
1.09500000e+02	9.40504270e-01
1.10500000e+02	9.40165054e-01
1.11500000e+02	9.39823135e-01
1.12500000e+02	9.39478523e-01
1.13500000e+02	9.39131227e-01
1.14500000e+02	9.38781256e-01
1.15500000e+02	9.38428619e-01
1.16500000e+02	9.38073326e-01
1.17500000e+02	9.37715385e-01
1.18500000e+02	9.37354807e-01
1.19500000e+02	9.36991600e-01
1.20500000e+02	9.36625774e-01
1.21500000e+02	9.36257338e-01
1.22500000e+02	9.35886302e-01
1.23500000e+02	9.35512674e-01
1.24500000e+02	9.35136466e-01
1.25500000e+02	9.34757685e-01
1.26500000e+02	9.34376342e-01
1.27500000e+02	9.33992447e-01
1.28500000e+02	9.33606008e-01
1.29500000e+02	9.33217035e-01
1.30500000e+02	9.32825538e-01
1.31500000e+02	9.32431527e-01
1.32500000e+02	9.32035010e-01
1.33500000e+02	9.31635999e-01
1.34500000e+02	9.31234501e-01
1.35500000e+02	9.30830528e-01
1.36500000e+02	9.30424089e-01
1.37500000e+02	9.30015193e-01
1.38500000e+02	9.29603850e-01
1.39500000e+02	9.29190070e-01
1.40500000e+02	9.28773862e-01
1.41500000e+02	9.28355237e-01
1.42500000e+02	9.27934204e-01
1.43500000e+02	9.27510772e-01
1.44500000e+02	9.27084952e-01
1.45500000e+02	9.26656754e-01
1.46500000e+02	9.26226186e-01
1.47500000e+02	9.25793259e-01
1.48500000e+02	9.25357982e-01
1.49500000e+02	9.24920365e-01
1.50500000e+02	9.24480419e-01
1.51500000e+02	9.24038152e-01
1.52500000e+02	9.23593575e-01
1.53500000e+02	9.23146697e-01
1.54500000e+02	9.22697527e-01
1.55500000e+02	9.22246077e-01
1.56500000e+02	9.21792354e-01
1.57500000e+02	9.21336370e-01
1.58500000e+02	9.20878134e-01
1.59500000e+02	9.20417655e-01
1.60500000e+02	9.19954943e-01
1.61500000e+02	9.19490007e-01
1.62500000e+02	9.19022859e-01
1.63500000e+02	9.18553506e-01
1.64500000e+02	9.18081959e-01
1.65500000e+02	9.17608227e-01
1.66500000e+02	9.17132320e-01
1.67500000e+02	9.16654248e-01
1.68500000e+02	9.16174020e-01
1.69500000e+02	9.15691645e-01
1.70500000e+02	9.15207134e-01
1.71500000e+02	9.14720495e-01
1.72500000e+02	9.14231737e-01
1.73500000e+02	9.13740871e-01
1.74500000e+02	9.13247906e-01
1.75500000e+02	9.12752851e-01
1.76500000e+02	9.12255715e-01
1.77500000e+02	9.11756508e-01
1.78500000e+02	9.11255238e-01
1.79500000e+02	9.10751916e-01
1.80500000e+02	9.10246550e-01
1.81500000e+02	9.09739149e-01
1.82500000e+02	9.09229722e-01
1.83500000e+02	9.08718279e-01
1.84500000e+02	9.08204828e-01
1.85500000e+02	9.07689379e-01
1.86500000e+02	9.07171940e-01
1.87500000e+02	9.06652519e-01
1.88500000e+02	9.06131127e-01
1.89500000e+02	9.05607771e-01
1.90500000e+02	9.05082460e-01
1.91500000e+02	9.04555203e-01
1.92500000e+02	9.04026008e-01
1.93500000e+02	9.03494884e-01
1.94500000e+02	9.02961838e-01
1.95500000e+02	9.02426880e-01
1.96500000e+02	9.01890018e-01
1.97500000e+02	9.01351259e-01
1.98500000e+02	9.00810612e-01
1.99500000e+02	9.00268084e-01
2.00500000e+02	8.99723684e-01
2.01500000e+02	8.99177419e-01
2.02500000e+02	8.98629297e-01
2.03500000e+02	8.98079325e-01
2.04500000e+02	8.97527512e-01
2.05500000e+02	8.96973863e-01
2.06500000e+02	8.96418387e-01
2.07500000e+02	8.95861091e-01
2.08500000e+02	8.95301982e-01
2.09500000e+02	8.94741065e-01
2.10500000e+02	8.94178349e-01
2.11500000e+02	8.93613840e-01
2.12500000e+02	8.93047544e-01
2.13500000e+02	8.92479467e-01
2.14500000e+02	8.91909616e-01
2.15500000e+02	8.91337997e-01
2.16500000e+02	8.90764615e-01
2.17500000e+02	8.90189476e-01
2.18500000e+02	8.89612585e-01
2.19500000e+02	8.89033948e-01
2.20500000e+02	8.88453571e-01
2.21500000e+02	8.87871457e-01
2.22500000e+02	8.87287611e-01
2.23500000e+02	8.86702038e-01
2.24500000e+02	8.86114743e-01
2.25500000e+02	8.85525729e-01
2.26500000e+02	8.84935000e-01
2.27500000e+02	8.84342560e-01
2.28500000e+02	8.83748411e-01
2.29500000e+02	8.83152558e-01
2.30500000e+02	8.82555003e-01
2.31500000e+02	8.81955747e-01
2.32500000e+02	8.81354795e-01
2.33500000e+02	8.80752147e-01
2.34500000e+02	8.80147805e-01
2.35500000e+02	8.79541771e-01
2.36500000e+02	8.78934046e-01
2.37500000e+02	8.78324630e-01
2.38500000e+02	8.77713524e-01
2.39500000e+02	8.77100727e-01
2.40500000e+02	8.76486240e-01
2.41500000e+02	8.75870061e-01
2.42500000e+02	8.75252190e-01
2.43500000e+02	8.74632626e-01
2.44500000e+02	8.74011365e-01
2.45500000e+02	8.73388407e-01
2.46500000e+02	8.72763747e-01
2.47500000e+02	8.72137384e-01
2.48500000e+02	8.71509313e-01
2.49500000e+02	8.70879530e-01
2.50500000e+02	8.70248032e-01
2.51500000e+02	8.69614812e-01
2.52500000e+02	8.68979865e-01
2.53500000e+02	8.68343185e-01
2.54500000e+02	8.67704767e-01
2.55500000e+02	8.67064601e-01
2.56500000e+02	8.66422682e-01
2.57500000e+02	8.65778999e-01
2.58500000e+02	8.65133546e-01
2.59500000e+02	8.64486312e-01
2.60500000e+02	8.63837287e-01
2.61500000e+02	8.63186461e-01
2.62500000e+02	8.62533822e-01
2.63500000e+02	8.61879358e-01
2.64500000e+02	8.61223058e-01
2.65500000e+02	8.60564906e-01
2.66500000e+02	8.59904890e-01
2.67500000e+02	8.59242994e-01
2.68500000e+02	8.58579204e-01
2.69500000e+02	8.57913502e-01
2.70500000e+02	8.57245872e-01
2.71500000e+02	8.56576297e-01
2.72500000e+02	8.55904757e-01
2.73500000e+02	8.55231233e-01
2.74500000e+02	8.54555705e-01
2.75500000e+02	8.53878153e-01
2.76500000e+02	8.53198553e-01
2.77500000e+02	8.52516884e-01
2.78500000e+02	8.51833121e-01
2.79500000e+02	8.51147240e-01
2.80500000e+02	8.50459217e-01
2.81500000e+02	8.49769023e-01
2.82500000e+02	8.49076632e-01
2.83500000e+02	8.48382015e-01
2.84500000e+02	8.47685144e-01
2.85500000e+02	8.46985987e-01
2.86500000e+02	8.46284514e-01
2.87500000e+02	8.45580692e-01
2.88500000e+02	8.44874487e-01
2.89500000e+02	8.44165866e-01
2.90500000e+02	8.43454792e-01
2.91500000e+02	8.42741230e-01
2.92500000e+02	8.42025140e-01
2.93500000e+02	8.41306485e-01
2.94500000e+02	8.40585225e-01
2.95500000e+02	8.39861318e-01
2.96500000e+02	8.39134721e-01
2.97500000e+02	8.38405393e-01
2.98500000e+02	8.37673287e-01
2.99500000e+02	8.36938359e-01
3.00500000e+02	8.36200561e-01
3.01500000e+02	8.35459844e-01
3.02500000e+02	8.34716161e-01
3.03500000e+02	8.33969459e-01
3.04500000e+02	8.33219688e-01
3.05500000e+02	8.32466793e-01
3.06500000e+02	8.31710721e-01
3.07500000e+02	8.30951416e-01
3.08500000e+02	8.30188821e-01
3.09500000e+02	8.29422877e-01
3.10500000e+02	8.28653526e-01
3.11500000e+02	8.27880707e-01
3.12500000e+02	8.27104357e-01
3.13500000e+02	8.26324413e-01
3.14500000e+02	8.25540811e-01
3.15500000e+02	8.24753485e-01
3.16500000e+02	8.23962367e-01
3.17500000e+02	8.23167389e-01
3.18500000e+02	8.22368482e-01
3.19500000e+02	8.21565574e-01
3.20500000e+02	8.20758593e-01
3.21500000e+02	8.19947465e-01
3.22500000e+02	8.19132115e-01
3.23500000e+02	8.18312468e-01
3.24500000e+02	8.17488446e-01
3.25500000e+02	8.16659969e-01
3.26500000e+02	8.15826959e-01
3.27500000e+02	8.14989333e-01
3.28500000e+02	8.14147010e-01
3.29500000e+02	8.13299906e-01
3.30500000e+02	8.12447936e-01
3.31500000e+02	8.11591014e-01
3.32500000e+02	8.10729052e-01
3.33500000e+02	8.09861963e-01
3.34500000e+02	8.08989657e-01
3.35500000e+02	8.08112043e-01
3.36500000e+02	8.07229029e-01
3.37500000e+02	8.06340523e-01
3.38500000e+02	8.05446430e-01
3.39500000e+02	8.04546656e-01
3.40500000e+02	8.03641104e-01
3.41500000e+02	8.02729678e-01
3.42500000e+02	8.01812279e-01
3.43500000e+02	8.00888808e-01
3.44500000e+02	7.99959166e-01
3.45500000e+02	7.99023251e-01
3.46500000e+02	7.98080961e-01
3.47500000e+02	7.97132195e-01
3.48500000e+02	7.96176849e-01
3.49500000e+02	7.95214817e-01
3.50500000e+02	7.94245996e-01
3.51500000e+02	7.93270279e-01
3.52500000e+02	7.92287560e-01
3.53500000e+02	7.91297732e-01
3.54500000e+02	7.90300686e-01
3.55500000e+02	7.89296313e-01
3.56500000e+02	7.88284506e-01
3.57500000e+02	7.87265154e-01
3.58500000e+02	7.86238147e-01
3.59500000e+02	7.85203373e-01
3.60500000e+02	7.84160722e-01
3.61500000e+02	7.83110083e-01
3.62500000e+02	7.82051342e-01
3.63500000e+02	7.80984387e-01
3.64500000e+02	7.79909106e-01
3.65500000e+02	7.78825386e-01
3.66500000e+02	7.77733112e-01
3.67500000e+02	7.76632172e-01
3.68500000e+02	7.75522452e-01
3.69500000e+02	7.74403838e-01
3.70500000e+02	7.73276215e-01
3.71500000e+02	7.72139469e-01
3.72500000e+02	7.70993487e-01
3.73500000e+02	7.69838154e-01
3.74500000e+02	7.68673357e-01
3.75500000e+02	7.67498981e-01
3.76500000e+02	7.66314912e-01
3.77500000e+02	7.65121037e-01
3.78500000e+02	7.63917242e-01
3.79500000e+02	7.62703415e-01
3.80500000e+02	7.61479442e-01
3.81500000e+02	7.60245212e-01
3.82500000e+02	7.59000612e-01
3.83500000e+02	7.57745532e-01
3.84500000e+02	7.56479859e-01
3.85500000e+02	7.55203485e-01
3.86500000e+02	7.53916299e-01
3.87500000e+02	7.52618193e-01
3.88500000e+02	7.51309059e-01
3.89500000e+02	7.49988789e-01
3.90500000e+02	7.48657278e-01
3.91500000e+02	7.47314421e-01
3.92500000e+02	7.45960114e-01
3.93500000e+02	7.44594253e-01
3.94500000e+02	7.43216737e-01
3.95500000e+02	7.41827466e-01
3.96500000e+02	7.40426340e-01
3.97500000e+02	7.39013264e-01
3.98500000e+02	7.37588140e-01
3.99500000e+02	7.36150874e-01
4.00500000e+02	7.34701374e-01
4.01500000e+02	7.33239550e-01
4.02500000e+02	7.31765312e-01
4.03500000e+02	7.30278575e-01
4.04500000e+02	7.28779253e-01
4.05500000e+02	7.27267264e-01
4.06500000e+02	7.25742529e-01
4.07500000e+02	7.24204969e-01
4.08500000e+02	7.22654511e-01
4.09500000e+02	7.21091081e-01
4.10500000e+02	7.19514610e-01
4.11500000e+02	7.17925031e-01
4.12500000e+02	7.16322281e-01
4.13500000e+02	7.14706299e-01
4.14500000e+02	7.13077027e-01
4.15500000e+02	7.11434412e-01
4.16500000e+02	7.09778403e-01
4.17500000e+02	7.08108953e-01
4.18500000e+02	7.06426018e-01
4.19500000e+02	7.04729558e-01
4.20500000e+02	7.03019538e-01
4.21500000e+02	7.01295926e-01
4.22500000e+02	6.99558695e-01
4.23500000e+02	6.97807821e-01
4.24500000e+02	6.96043285e-01
4.25500000e+02	6.94265072e-01
4.26500000e+02	6.92473173e-01
4.27500000e+02	6.90667581e-01
4.28500000e+02	6.88848297e-01
4.29500000e+02	6.87015324e-01
4.30500000e+02	6.85168672e-01
4.31500000e+02	6.83308355e-01
4.32500000e+02	6.81434392e-01
4.33500000e+02	6.79546808e-01
4.34500000e+02	6.77645633e-01
4.35500000e+02	6.75730902e-01
4.36500000e+02	6.73802655e-01
4.37500000e+02	6.71860940e-01
4.38500000e+02	6.69905807e-01
4.39500000e+02	6.67937314e-01
4.40500000e+02	6.65955524e-01
4.41500000e+02	6.63960505e-01
4.42500000e+02	6.61952332e-01
4.43500000e+02	6.59931084e-01
4.44500000e+02	6.57896848e-01
4.45500000e+02	6.55849716e-01
4.46500000e+02	6.53789783e-01
4.47500000e+02	6.51717153e-01
4.48500000e+02	6.49631935e-01
4.49500000e+02	6.47534243e-01
4.50500000e+02	6.45424197e-01
4.51500000e+02	6.43301921e-01
4.52500000e+02	6.41167548e-01
4.53500000e+02	6.39021212e-01
4.54500000e+02	6.36863056e-01
4.55500000e+02	6.34693226e-01
4.56500000e+02	6.32511875e-01
4.57500000e+02	6.30319160e-01
4.58500000e+02	6.28115241e-01
4.59500000e+02	6.25900287e-01
4.60500000e+02	6.23674467e-01
4.61500000e+02	6.21437959e-01
4.62500000e+02	6.19190943e-01
4.63500000e+02	6.16933602e-01
4.64500000e+02	6.14666125e-01
4.65500000e+02	6.12388705e-01
4.66500000e+02	6.10101538e-01
4.67500000e+02	6.07804823e-01
4.68500000e+02	6.05498762e-01
4.69500000e+02	6.03183563e-01
4.70500000e+02	6.00859435e-01
4.71500000e+02	5.98526588e-01
4.72500000e+02	5.96185238e-01
4.73500000e+02	5.93835601e-01
4.74500000e+02	5.91477897e-01
4.75500000e+02	5.89112346e-01
4.76500000e+02	5.86739172e-01
4.77500000e+02	5.84358600e-01
4.78500000e+02	5.81970855e-01
4.79500000e+02	5.79576165e-01
4.80500000e+02	5.77174759e-01
4.81500000e+02	5.74766867e-01
4.82500000e+02	5.72352720e-01
4.83500000e+02	5.69932549e-01
4.84500000e+02	5.67506587e-01
4.85500000e+02	5.65075066e-01
4.86500000e+02	5.62638219e-01
4.87500000e+02	5.60196281e-01
4.88500000e+02	5.57749485e-01
4.89500000e+02	5.55298066e-01
4.90500000e+02	5.52842257e-01
4.91500000e+02	5.50382294e-01
4.92500000e+02	5.47918412e-01
4.93500000e+02	5.45450845e-01
4.94500000e+02	5.42979828e-01
4.95500000e+02	5.40505598e-01
4.96500000e+02	5.38028389e-01
4.97500000e+02	5.35548438e-01
4.98500000e+02	5.33065982e-01
4.99500000e+02	5.30581256e-01
5.00500000e+02	5.28094499e-01
5.01500000e+02	5.25605950e-01
5.02500000e+02	5.23115846e-01
5.03500000e+02	5.20624429e-01
5.04500000e+02	5.18131939e-01
5.05500000e+02	5.15638619e-01
5.06500000e+02	5.13144713e-01
5.07500000e+02	5.10650467e-01
5.08500000e+02	5.08156128e-01
5.09500000e+02	5.05661945e-01
5.10500000e+02	5.03168170e-01
5.11500000e+02	5.00675058e-01
5.12500000e+02	4.98182864e-01
5.13500000e+02	4.95691848e-01
5.14500000e+02	4.93202273e-01
5.15500000e+02	4.90714403e-01
5.16500000e+02	4.88228507e-01
5.17500000e+02	4.85744859e-01
5.18500000e+02	4.83263732e-01
5.19500000e+02	4.80785408e-01
5.20500000e+02	4.78310170e-01
5.21500000e+02	4.75838305e-01
5.22500000e+02	4.73370106e-01
5.23500000e+02	4.70905868e-01
5.24500000e+02	4.68445892e-01
5.25500000e+02	4.65990484e-01
5.26500000e+02	4.63539953e-01
5.27500000e+02	4.61094612e-01
5.28500000e+02	4.58654781e-01
5.29500000e+02	4.56220783e-01
5.30500000e+02	4.53792945e-01
5.31500000e+02	4.51371599e-01
5.32500000e+02	4.48957083e-01
5.33500000e+02	4.46549736e-01
5.34500000e+02	4.44149903e-01
5.35500000e+02	4.41757934e-01
5.36500000e+02	4.39374180e-01
5.37500000e+02	4.36998998e-01
5.38500000e+02	4.34632746e-01
5.39500000e+02	4.32275788e-01
5.40500000e+02	4.29928488e-01
5.41500000e+02	4.27591214e-01
5.42500000e+02	4.25264336e-01
5.43500000e+02	4.22948224e-01
5.44500000e+02	4.20643252e-01
5.45500000e+02	4.18349792e-01
5.46500000e+02	4.16068220e-01
5.47500000e+02	4.13798909e-01
5.48500000e+02	4.11542233e-01
5.49500000e+02	4.09298564e-01
5.50500000e+02	4.07068274e-01
5.51500000e+02	4.04851733e-01
5.52500000e+02	4.02649308e-01
5.53500000e+02	4.00461362e-01
5.54500000e+02	3.98288256e-01
5.55500000e+02	3.96130346e-01
5.56500000e+02	3.93987986e-01
5.57500000e+02	3.91861520e-01
5.58500000e+02	3.89751291e-01
5.59500000e+02	3.87657633e-01
5.60500000e+02	3.85580875e-01
5.61500000e+02	3.83521337e-01
5.62500000e+02	3.81479332e-01
5.63500000e+02	3.79455166e-01
5.64500000e+02	3.77449133e-01
5.65500000e+02	3.75461521e-01
5.66500000e+02	3.73492606e-01
5.67500000e+02	3.71542657e-01
5.68500000e+02	3.69611928e-01
5.69500000e+02	3.67700666e-01
5.70500000e+02	3.65809104e-01
5.71500000e+02	3.63937467e-01
5.72500000e+02	3.62085963e-01
5.73500000e+02	3.60254793e-01
5.74500000e+02	3.58444142e-01
5.75500000e+02	3.56654184e-01
5.76500000e+02	3.54885082e-01
5.77500000e+02	3.53136982e-01
5.78500000e+02	3.51410020e-01
5.79500000e+02	3.49704319e-01
5.80500000e+02	3.48019989e-01
5.81500000e+02	3.46357125e-01
5.82500000e+02	3.44715811e-01
5.83500000e+02	3.43096117e-01
5.84500000e+02	3.41498102e-01
5.85500000e+02	3.39921809e-01
5.86500000e+02	3.38367271e-01
5.87500000e+02	3.36834509e-01
5.88500000e+02	3.35323529e-01
5.89500000e+02	3.33834328e-01
5.90500000e+02	3.32366890e-01
5.91500000e+02	3.30921187e-01
5.92500000e+02	3.29497181e-01
5.93500000e+02	3.28094822e-01
5.94500000e+02	3.26714051e-01
5.95500000e+02	3.25354797e-01
5.96500000e+02	3.24016981e-01
5.97500000e+02	3.22700514e-01
5.98500000e+02	3.21405296e-01
5.99500000e+02	3.20131220e-01
6.00500000e+02	3.18878172e-01
6.01500000e+02	3.17646027e-01
6.02500000e+02	3.16434655e-01
6.03500000e+02	3.15243916e-01
6.04500000e+02	3.14073667e-01
6.05500000e+02	3.12923755e-01
6.06500000e+02	3.11794023e-01
6.07500000e+02	3.10684307e-01
6.08500000e+02	3.09594440e-01
6.09500000e+02	3.08524247e-01
6.10500000e+02	3.07473552e-01
6.11500000e+02	3.06442171e-01
6.12500000e+02	3.05429920e-01
6.13500000e+02	3.04436608e-01
6.14500000e+02	3.03462043e-01
6.15500000e+02	3.02506029e-01
6.16500000e+02	3.01568370e-01
6.17500000e+02	3.00648864e-01
6.18500000e+02	2.99747309e-01
6.19500000e+02	2.98863502e-01
6.20500000e+02	2.97997238e-01
6.21500000e+02	2.97148311e-01
6.22500000e+02	2.96316513e-01
6.23500000e+02	2.95501637e-01
6.24500000e+02	2.94703474e-01
6.25500000e+02	2.93921817e-01
6.26500000e+02	2.93156456e-01
6.27500000e+02	2.92407185e-01
6.28500000e+02	2.91673795e-01
6.29500000e+02	2.90956078e-01
6.30500000e+02	2.90253828e-01
6.31500000e+02	2.89566840e-01
6.32500000e+02	2.88894909e-01
6.33500000e+02	2.88237832e-01
6.34500000e+02	2.87595406e-01
6.35500000e+02	2.86967430e-01
6.36500000e+02	2.86353706e-01
6.37500000e+02	2.85754036e-01
6.38500000e+02	2.85168223e-01
6.39500000e+02	2.84596075e-01
6.40500000e+02	2.84037399e-01
6.41500000e+02	2.83492004e-01
6.42500000e+02	2.82959703e-01
6.43500000e+02	2.82440309e-01
6.44500000e+02	2.81933640e-01
6.45500000e+02	2.81439512e-01
6.46500000e+02	2.80957748e-01
6.47500000e+02	2.80488169e-01
6.48500000e+02	2.80030603e-01
6.49500000e+02	2.79584876e-01
6.50500000e+02	2.79150821e-01
6.51500000e+02	2.78728271e-01
6.52500000e+02	2.78317064e-01
6.53500000e+02	2.77917037e-01
6.54500000e+02	2.77528029e-01
6.55500000e+02	2.77149883e-01
6.56500000e+02	2.76782449e-01
6.57500000e+02	2.76425577e-01
6.58500000e+02	2.76079119e-01
6.59500000e+02	2.75742931e-01
6.60500000e+02	2.75416871e-01
