# Profil de Te au temps 2.000999999999940e-11 
# simu : /Volumes/MERCURE/JOBS/Zeq2_tanh_50mic_2p1e19_B0_20ps/GNU/Te@y-c.set
# col 0 : abscisse (um)
# col 1 : Te (keV)
5.00000000e-01	9.39597778e-01
1.50000000e+00	9.39594806e-01
2.50000000e+00	9.39589163e-01
3.50000000e+00	9.39580725e-01
4.50000000e+00	9.39569377e-01
5.50000000e+00	9.39555200e-01
6.50000000e+00	9.39538191e-01
7.50000000e+00	9.39518347e-01
8.50000000e+00	9.39495671e-01
9.50000000e+00	9.39470161e-01
1.05000000e+01	9.39441820e-01
1.15000000e+01	9.39410647e-01
1.25000000e+01	9.39376644e-01
1.35000000e+01	9.39339811e-01
1.45000000e+01	9.39300150e-01
1.55000000e+01	9.39257662e-01
1.65000000e+01	9.39212347e-01
1.75000000e+01	9.39164206e-01
1.85000000e+01	9.39113242e-01
1.95000000e+01	9.39059456e-01
2.05000000e+01	9.39002848e-01
2.15000000e+01	9.38943421e-01
2.25000000e+01	9.38881176e-01
2.35000000e+01	9.38816114e-01
2.45000000e+01	9.38748238e-01
2.55000000e+01	9.38677549e-01
2.65000000e+01	9.38604049e-01
2.75000000e+01	9.38527740e-01
2.85000000e+01	9.38448623e-01
2.95000000e+01	9.38366702e-01
3.05000000e+01	9.38281978e-01
3.15000000e+01	9.38194454e-01
3.25000000e+01	9.38104131e-01
3.35000000e+01	9.38011012e-01
3.45000000e+01	9.37915100e-01
3.55000000e+01	9.37816397e-01
3.65000000e+01	9.37714905e-01
3.75000000e+01	9.37610628e-01
3.85000000e+01	9.37503569e-01
3.95000000e+01	9.37393729e-01
4.05000000e+01	9.37281111e-01
4.15000000e+01	9.37165720e-01
4.25000000e+01	9.37047557e-01
4.35000000e+01	9.36926626e-01
4.45000000e+01	9.36802931e-01
4.55000000e+01	9.36676473e-01
4.65000000e+01	9.36547257e-01
4.75000000e+01	9.36415287e-01
4.85000000e+01	9.36280564e-01
4.95000000e+01	9.36143094e-01
5.05000000e+01	9.36002879e-01
5.15000000e+01	9.35859923e-01
5.25000000e+01	9.35714230e-01
5.35000000e+01	9.35565805e-01
5.45000000e+01	9.35414649e-01
5.55000000e+01	9.35260768e-01
5.65000000e+01	9.35104166e-01
5.75000000e+01	9.34944847e-01
5.85000000e+01	9.34782814e-01
5.95000000e+01	9.34618072e-01
6.05000000e+01	9.34450625e-01
6.15000000e+01	9.34280478e-01
6.25000000e+01	9.34107635e-01
6.35000000e+01	9.33932101e-01
6.45000000e+01	9.33753880e-01
6.55000000e+01	9.33572976e-01
6.65000000e+01	9.33389395e-01
6.75000000e+01	9.33203141e-01
6.85000000e+01	9.33014219e-01
6.95000000e+01	9.32822634e-01
7.05000000e+01	9.32628390e-01
7.15000000e+01	9.32431493e-01
7.25000000e+01	9.32231948e-01
7.35000000e+01	9.32029760e-01
7.45000000e+01	9.31824935e-01
7.55000000e+01	9.31617476e-01
7.65000000e+01	9.31407391e-01
7.75000000e+01	9.31194684e-01
7.85000000e+01	9.30979360e-01
7.95000000e+01	9.30761425e-01
8.05000000e+01	9.30540885e-01
8.15000000e+01	9.30317746e-01
8.25000000e+01	9.30092012e-01
8.35000000e+01	9.29863690e-01
8.45000000e+01	9.29632786e-01
8.55000000e+01	9.29399305e-01
8.65000000e+01	9.29163254e-01
8.75000000e+01	9.28924638e-01
8.85000000e+01	9.28683463e-01
8.95000000e+01	9.28439735e-01
9.05000000e+01	9.28193462e-01
9.15000000e+01	9.27944648e-01
9.25000000e+01	9.27693300e-01
9.35000000e+01	9.27439424e-01
9.45000000e+01	9.27183027e-01
9.55000000e+01	9.26924116e-01
9.65000000e+01	9.26662696e-01
9.75000000e+01	9.26398774e-01
9.85000000e+01	9.26132357e-01
9.95000000e+01	9.25863451e-01
1.00500000e+02	9.25592064e-01
1.01500000e+02	9.25318201e-01
1.02500000e+02	9.25041870e-01
1.03500000e+02	9.24763078e-01
1.04500000e+02	9.24481831e-01
1.05500000e+02	9.24198136e-01
1.06500000e+02	9.23912001e-01
1.07500000e+02	9.23623432e-01
1.08500000e+02	9.23332437e-01
1.09500000e+02	9.23039023e-01
1.10500000e+02	9.22743196e-01
1.11500000e+02	9.22444964e-01
1.12500000e+02	9.22144335e-01
1.13500000e+02	9.21841315e-01
1.14500000e+02	9.21535913e-01
1.15500000e+02	9.21228135e-01
1.16500000e+02	9.20917988e-01
1.17500000e+02	9.20605482e-01
1.18500000e+02	9.20290622e-01
1.19500000e+02	9.19973416e-01
1.20500000e+02	9.19653873e-01
1.21500000e+02	9.19332000e-01
1.22500000e+02	9.19007804e-01
1.23500000e+02	9.18681293e-01
1.24500000e+02	9.18352475e-01
1.25500000e+02	9.18021358e-01
1.26500000e+02	9.17687950e-01
1.27500000e+02	9.17352258e-01
1.28500000e+02	9.17014291e-01
1.29500000e+02	9.16674056e-01
1.30500000e+02	9.16331561e-01
1.31500000e+02	9.15986815e-01
1.32500000e+02	9.15639824e-01
1.33500000e+02	9.15290599e-01
1.34500000e+02	9.14939146e-01
1.35500000e+02	9.14585473e-01
1.36500000e+02	9.14229589e-01
1.37500000e+02	9.13871502e-01
1.38500000e+02	9.13511221e-01
1.39500000e+02	9.13148752e-01
1.40500000e+02	9.12784105e-01
1.41500000e+02	9.12417288e-01
1.42500000e+02	9.12048309e-01
1.43500000e+02	9.11677176e-01
1.44500000e+02	9.11303898e-01
1.45500000e+02	9.10928483e-01
1.46500000e+02	9.10550939e-01
1.47500000e+02	9.10171275e-01
1.48500000e+02	9.09789499e-01
1.49500000e+02	9.09405619e-01
1.50500000e+02	9.09019644e-01
1.51500000e+02	9.08631582e-01
1.52500000e+02	9.08241442e-01
1.53500000e+02	9.07849232e-01
1.54500000e+02	9.07454959e-01
1.55500000e+02	9.07058634e-01
1.56500000e+02	9.06660263e-01
1.57500000e+02	9.06259856e-01
1.58500000e+02	9.05857421e-01
1.59500000e+02	9.05452966e-01
1.60500000e+02	9.05046500e-01
1.61500000e+02	9.04638030e-01
1.62500000e+02	9.04227566e-01
1.63500000e+02	9.03815115e-01
1.64500000e+02	9.03400686e-01
1.65500000e+02	9.02984287e-01
1.66500000e+02	9.02565926e-01
1.67500000e+02	9.02145612e-01
1.68500000e+02	9.01723353e-01
1.69500000e+02	9.01299157e-01
1.70500000e+02	9.00873032e-01
1.71500000e+02	9.00444986e-01
1.72500000e+02	9.00015027e-01
1.73500000e+02	8.99583164e-01
1.74500000e+02	8.99149404e-01
1.75500000e+02	8.98713755e-01
1.76500000e+02	8.98276225e-01
1.77500000e+02	8.97836822e-01
1.78500000e+02	8.97395554e-01
1.79500000e+02	8.96952428e-01
1.80500000e+02	8.96507452e-01
1.81500000e+02	8.96060633e-01
1.82500000e+02	8.95611980e-01
1.83500000e+02	8.95161499e-01
1.84500000e+02	8.94709199e-01
1.85500000e+02	8.94255085e-01
1.86500000e+02	8.93799165e-01
1.87500000e+02	8.93341447e-01
1.88500000e+02	8.92881938e-01
1.89500000e+02	8.92420644e-01
1.90500000e+02	8.91957572e-01
1.91500000e+02	8.91492728e-01
1.92500000e+02	8.91026120e-01
1.93500000e+02	8.90557754e-01
1.94500000e+02	8.90087636e-01
1.95500000e+02	8.89615773e-01
1.96500000e+02	8.89142170e-01
1.97500000e+02	8.88666833e-01
1.98500000e+02	8.88189768e-01
1.99500000e+02	8.87710981e-01
2.00500000e+02	8.87230478e-01
2.01500000e+02	8.86748263e-01
2.02500000e+02	8.86264342e-01
2.03500000e+02	8.85778720e-01
2.04500000e+02	8.85291401e-01
2.05500000e+02	8.84802391e-01
2.06500000e+02	8.84311693e-01
2.07500000e+02	8.83819312e-01
2.08500000e+02	8.83325252e-01
2.09500000e+02	8.82829517e-01
2.10500000e+02	8.82332111e-01
2.11500000e+02	8.81833036e-01
2.12500000e+02	8.81332296e-01
2.13500000e+02	8.80829894e-01
2.14500000e+02	8.80325833e-01
2.15500000e+02	8.79820114e-01
2.16500000e+02	8.79312741e-01
2.17500000e+02	8.78803715e-01
2.18500000e+02	8.78293038e-01
2.19500000e+02	8.77780711e-01
2.20500000e+02	8.77266735e-01
2.21500000e+02	8.76751111e-01
2.22500000e+02	8.76233839e-01
2.23500000e+02	8.75714920e-01
2.24500000e+02	8.75194353e-01
2.25500000e+02	8.74672138e-01
2.26500000e+02	8.74148274e-01
2.27500000e+02	8.73622760e-01
2.28500000e+02	8.73095593e-01
2.29500000e+02	8.72566774e-01
2.30500000e+02	8.72036298e-01
2.31500000e+02	8.71504163e-01
2.32500000e+02	8.70970367e-01
2.33500000e+02	8.70434905e-01
2.34500000e+02	8.69897774e-01
2.35500000e+02	8.69358970e-01
2.36500000e+02	8.68818488e-01
2.37500000e+02	8.68276322e-01
2.38500000e+02	8.67732467e-01
2.39500000e+02	8.67186917e-01
2.40500000e+02	8.66639666e-01
2.41500000e+02	8.66090706e-01
2.42500000e+02	8.65540030e-01
2.43500000e+02	8.64987629e-01
2.44500000e+02	8.64433496e-01
2.45500000e+02	8.63877621e-01
2.46500000e+02	8.63319995e-01
2.47500000e+02	8.62760608e-01
2.48500000e+02	8.62199448e-01
2.49500000e+02	8.61636505e-01
2.50500000e+02	8.61071768e-01
2.51500000e+02	8.60505222e-01
2.52500000e+02	8.59936857e-01
2.53500000e+02	8.59366658e-01
2.54500000e+02	8.58794611e-01
2.55500000e+02	8.58220702e-01
2.56500000e+02	8.57644914e-01
2.57500000e+02	8.57067233e-01
2.58500000e+02	8.56487641e-01
2.59500000e+02	8.55906121e-01
2.60500000e+02	8.55322655e-01
2.61500000e+02	8.54737225e-01
2.62500000e+02	8.54149812e-01
2.63500000e+02	8.53560394e-01
2.64500000e+02	8.52968952e-01
2.65500000e+02	8.52375465e-01
2.66500000e+02	8.51779909e-01
2.67500000e+02	8.51182263e-01
2.68500000e+02	8.50582503e-01
2.69500000e+02	8.49980604e-01
2.70500000e+02	8.49376541e-01
2.71500000e+02	8.48770289e-01
2.72500000e+02	8.48161822e-01
2.73500000e+02	8.47551110e-01
2.74500000e+02	8.46938128e-01
2.75500000e+02	8.46322845e-01
2.76500000e+02	8.45705232e-01
2.77500000e+02	8.45085259e-01
2.78500000e+02	8.44462894e-01
2.79500000e+02	8.43838105e-01
2.80500000e+02	8.43210859e-01
2.81500000e+02	8.42581122e-01
2.82500000e+02	8.41948860e-01
2.83500000e+02	8.41314037e-01
2.84500000e+02	8.40676618e-01
2.85500000e+02	8.40036564e-01
2.86500000e+02	8.39393839e-01
2.87500000e+02	8.38748403e-01
2.88500000e+02	8.38100216e-01
2.89500000e+02	8.37449238e-01
2.90500000e+02	8.36795428e-01
2.91500000e+02	8.36138743e-01
2.92500000e+02	8.35479140e-01
2.93500000e+02	8.34816576e-01
2.94500000e+02	8.34151005e-01
2.95500000e+02	8.33482382e-01
2.96500000e+02	8.32810660e-01
2.97500000e+02	8.32135792e-01
2.98500000e+02	8.31457729e-01
2.99500000e+02	8.30776422e-01
3.00500000e+02	8.30091821e-01
3.01500000e+02	8.29403875e-01
3.02500000e+02	8.28712533e-01
3.03500000e+02	8.28017741e-01
3.04500000e+02	8.27319446e-01
3.05500000e+02	8.26617595e-01
3.06500000e+02	8.25912130e-01
3.07500000e+02	8.25202998e-01
3.08500000e+02	8.24490140e-01
3.09500000e+02	8.23773499e-01
3.10500000e+02	8.23053016e-01
3.11500000e+02	8.22328632e-01
3.12500000e+02	8.21600287e-01
3.13500000e+02	8.20867919e-01
3.14500000e+02	8.20131468e-01
3.15500000e+02	8.19390869e-01
3.16500000e+02	8.18646061e-01
3.17500000e+02	8.17896978e-01
3.18500000e+02	8.17143556e-01
3.19500000e+02	8.16385728e-01
3.20500000e+02	8.15623430e-01
3.21500000e+02	8.14856592e-01
3.22500000e+02	8.14085148e-01
3.23500000e+02	8.13309029e-01
3.24500000e+02	8.12528165e-01
3.25500000e+02	8.11742486e-01
3.26500000e+02	8.10951921e-01
3.27500000e+02	8.10156399e-01
3.28500000e+02	8.09355849e-01
3.29500000e+02	8.08550196e-01
3.30500000e+02	8.07739368e-01
3.31500000e+02	8.06923291e-01
3.32500000e+02	8.06101889e-01
3.33500000e+02	8.05275089e-01
3.34500000e+02	8.04442813e-01
3.35500000e+02	8.03604985e-01
3.36500000e+02	8.02761529e-01
3.37500000e+02	8.01912367e-01
3.38500000e+02	8.01057420e-01
3.39500000e+02	8.00196610e-01
3.40500000e+02	7.99329858e-01
3.41500000e+02	7.98457085e-01
3.42500000e+02	7.97578209e-01
3.43500000e+02	7.96693150e-01
3.44500000e+02	7.95801828e-01
3.45500000e+02	7.94904161e-01
3.46500000e+02	7.94000066e-01
3.47500000e+02	7.93089462e-01
3.48500000e+02	7.92172265e-01
3.49500000e+02	7.91248392e-01
3.50500000e+02	7.90317760e-01
3.51500000e+02	7.89380285e-01
3.52500000e+02	7.88435882e-01
3.53500000e+02	7.87484467e-01
3.54500000e+02	7.86525955e-01
3.55500000e+02	7.85560260e-01
3.56500000e+02	7.84587297e-01
3.57500000e+02	7.83606981e-01
3.58500000e+02	7.82619224e-01
3.59500000e+02	7.81623942e-01
3.60500000e+02	7.80621046e-01
3.61500000e+02	7.79610452e-01
3.62500000e+02	7.78592071e-01
3.63500000e+02	7.77565816e-01
3.64500000e+02	7.76531601e-01
3.65500000e+02	7.75489338e-01
3.66500000e+02	7.74438940e-01
3.67500000e+02	7.73380320e-01
3.68500000e+02	7.72313389e-01
3.69500000e+02	7.71238060e-01
3.70500000e+02	7.70154246e-01
3.71500000e+02	7.69061860e-01
3.72500000e+02	7.67960814e-01
3.73500000e+02	7.66851020e-01
3.74500000e+02	7.65732392e-01
3.75500000e+02	7.64604842e-01
3.76500000e+02	7.63468284e-01
3.77500000e+02	7.62322632e-01
3.78500000e+02	7.61167798e-01
3.79500000e+02	7.60003697e-01
3.80500000e+02	7.58830244e-01
3.81500000e+02	7.57647353e-01
3.82500000e+02	7.56454939e-01
3.83500000e+02	7.55252918e-01
3.84500000e+02	7.54041207e-01
3.85500000e+02	7.52819722e-01
3.86500000e+02	7.51588380e-01
3.87500000e+02	7.50347100e-01
3.88500000e+02	7.49095801e-01
3.89500000e+02	7.47834402e-01
3.90500000e+02	7.46562823e-01
3.91500000e+02	7.45280987e-01
3.92500000e+02	7.43988815e-01
3.93500000e+02	7.42686230e-01
3.94500000e+02	7.41373159e-01
3.95500000e+02	7.40049525e-01
3.96500000e+02	7.38715256e-01
3.97500000e+02	7.37370280e-01
3.98500000e+02	7.36014527e-01
3.99500000e+02	7.34647927e-01
4.00500000e+02	7.33270414e-01
4.01500000e+02	7.31881920e-01
4.02500000e+02	7.30482383e-01
4.03500000e+02	7.29071739e-01
4.04500000e+02	7.27649927e-01
4.05500000e+02	7.26216890e-01
4.06500000e+02	7.24772570e-01
4.07500000e+02	7.23316912e-01
4.08500000e+02	7.21849865e-01
4.09500000e+02	7.20371377e-01
4.10500000e+02	7.18881400e-01
4.11500000e+02	7.17379890e-01
4.12500000e+02	7.15866803e-01
4.13500000e+02	7.14342098e-01
4.14500000e+02	7.12805738e-01
4.15500000e+02	7.11257688e-01
4.16500000e+02	7.09697915e-01
4.17500000e+02	7.08126391e-01
4.18500000e+02	7.06543089e-01
4.19500000e+02	7.04947986e-01
4.20500000e+02	7.03341062e-01
4.21500000e+02	7.01722300e-01
4.22500000e+02	7.00091688e-01
4.23500000e+02	6.98449216e-01
4.24500000e+02	6.96794877e-01
4.25500000e+02	6.95128668e-01
4.26500000e+02	6.93450592e-01
4.27500000e+02	6.91760652e-01
4.28500000e+02	6.90058858e-01
4.29500000e+02	6.88345221e-01
4.30500000e+02	6.86619760e-01
4.31500000e+02	6.84882493e-01
4.32500000e+02	6.83133447e-01
4.33500000e+02	6.81372649e-01
4.34500000e+02	6.79600134e-01
4.35500000e+02	6.77815937e-01
4.36500000e+02	6.76020102e-01
4.37500000e+02	6.74212674e-01
4.38500000e+02	6.72393704e-01
4.39500000e+02	6.70563246e-01
4.40500000e+02	6.68721359e-01
4.41500000e+02	6.66868108e-01
4.42500000e+02	6.65003560e-01
4.43500000e+02	6.63127788e-01
4.44500000e+02	6.61240870e-01
4.45500000e+02	6.59342886e-01
4.46500000e+02	6.57433923e-01
4.47500000e+02	6.55514071e-01
4.48500000e+02	6.53583426e-01
4.49500000e+02	6.51642085e-01
4.50500000e+02	6.49690154e-01
4.51500000e+02	6.47727739e-01
4.52500000e+02	6.45754953e-01
4.53500000e+02	6.43771912e-01
4.54500000e+02	6.41778737e-01
4.55500000e+02	6.39775551e-01
4.56500000e+02	6.37762483e-01
4.57500000e+02	6.35739666e-01
4.58500000e+02	6.33707234e-01
4.59500000e+02	6.31665329e-01
4.60500000e+02	6.29614093e-01
4.61500000e+02	6.27553673e-01
4.62500000e+02	6.25484218e-01
4.63500000e+02	6.23405883e-01
4.64500000e+02	6.21318823e-01
4.65500000e+02	6.19223198e-01
4.66500000e+02	6.17119169e-01
4.67500000e+02	6.15006902e-01
4.68500000e+02	6.12886565e-01
4.69500000e+02	6.10758326e-01
4.70500000e+02	6.08622359e-01
4.71500000e+02	6.06478837e-01
4.72500000e+02	6.04327937e-01
4.73500000e+02	6.02169837e-01
4.74500000e+02	6.00004716e-01
4.75500000e+02	5.97832757e-01
4.76500000e+02	5.95654143e-01
4.77500000e+02	5.93469056e-01
4.78500000e+02	5.91277685e-01
4.79500000e+02	5.89080213e-01
4.80500000e+02	5.86876830e-01
4.81500000e+02	5.84667723e-01
4.82500000e+02	5.82453082e-01
4.83500000e+02	5.80233096e-01
4.84500000e+02	5.78007956e-01
4.85500000e+02	5.75777852e-01
4.86500000e+02	5.73542975e-01
4.87500000e+02	5.71303518e-01
4.88500000e+02	5.69059670e-01
4.89500000e+02	5.66811625e-01
4.90500000e+02	5.64559574e-01
4.91500000e+02	5.62303710e-01
4.92500000e+02	5.60044224e-01
4.93500000e+02	5.57781310e-01
4.94500000e+02	5.55515159e-01
4.95500000e+02	5.53245964e-01
4.96500000e+02	5.50973919e-01
4.97500000e+02	5.48699216e-01
4.98500000e+02	5.46422048e-01
4.99500000e+02	5.44142608e-01
5.00500000e+02	5.41861092e-01
5.01500000e+02	5.39577692e-01
5.02500000e+02	5.37292604e-01
5.03500000e+02	5.35006023e-01
5.04500000e+02	5.32718145e-01
5.05500000e+02	5.30429168e-01
5.06500000e+02	5.28139288e-01
5.07500000e+02	5.25848705e-01
5.08500000e+02	5.23557618e-01
5.09500000e+02	5.21266230e-01
5.10500000e+02	5.18974742e-01
5.11500000e+02	5.16683360e-01
5.12500000e+02	5.14392289e-01
5.13500000e+02	5.12101737e-01
5.14500000e+02	5.09811914e-01
5.15500000e+02	5.07523031e-01
5.16500000e+02	5.05235304e-01
5.17500000e+02	5.02948949e-01
5.18500000e+02	5.00664184e-01
5.19500000e+02	4.98381233e-01
5.20500000e+02	4.96100319e-01
5.21500000e+02	4.93821670e-01
5.22500000e+02	4.91545517e-01
5.23500000e+02	4.89272093e-01
5.24500000e+02	4.87001634e-01
5.25500000e+02	4.84734382e-01
5.26500000e+02	4.82470580e-01
5.27500000e+02	4.80210473e-01
5.28500000e+02	4.77954314e-01
5.29500000e+02	4.75702354e-01
5.30500000e+02	4.73454852e-01
5.31500000e+02	4.71212068e-01
5.32500000e+02	4.68974267e-01
5.33500000e+02	4.66741715e-01
5.34500000e+02	4.64514685e-01
5.35500000e+02	4.62293449e-01
5.36500000e+02	4.60078286e-01
5.37500000e+02	4.57869477e-01
5.38500000e+02	4.55667306e-01
5.39500000e+02	4.53472058e-01
5.40500000e+02	4.51284024e-01
5.41500000e+02	4.49103495e-01
5.42500000e+02	4.46930766e-01
5.43500000e+02	4.44766134e-01
5.44500000e+02	4.42609897e-01
5.45500000e+02	4.40462356e-01
5.46500000e+02	4.38323813e-01
5.47500000e+02	4.36194570e-01
5.48500000e+02	4.34074933e-01
5.49500000e+02	4.31965206e-01
5.50500000e+02	4.29865693e-01
5.51500000e+02	4.27776701e-01
5.52500000e+02	4.25698534e-01
5.53500000e+02	4.23631496e-01
5.54500000e+02	4.21575890e-01
5.55500000e+02	4.19532019e-01
5.56500000e+02	4.17500182e-01
5.57500000e+02	4.15480678e-01
5.58500000e+02	4.13473802e-01
5.59500000e+02	4.11479846e-01
5.60500000e+02	4.09499100e-01
5.61500000e+02	4.07531849e-01
5.62500000e+02	4.05578375e-01
5.63500000e+02	4.03638954e-01
5.64500000e+02	4.01713860e-01
5.65500000e+02	3.99803359e-01
5.66500000e+02	3.97907713e-01
5.67500000e+02	3.96027176e-01
5.68500000e+02	3.94161998e-01
5.69500000e+02	3.92312422e-01
5.70500000e+02	3.90478682e-01
5.71500000e+02	3.88661007e-01
5.72500000e+02	3.86859617e-01
5.73500000e+02	3.85074724e-01
5.74500000e+02	3.83306533e-01
5.75500000e+02	3.81555239e-01
5.76500000e+02	3.79821029e-01
5.77500000e+02	3.78104081e-01
5.78500000e+02	3.76404563e-01
5.79500000e+02	3.74722636e-01
5.80500000e+02	3.73058448e-01
5.81500000e+02	3.71412141e-01
5.82500000e+02	3.69783845e-01
5.83500000e+02	3.68173679e-01
5.84500000e+02	3.66581755e-01
5.85500000e+02	3.65008174e-01
5.86500000e+02	3.63453025e-01
5.87500000e+02	3.61916390e-01
5.88500000e+02	3.60398339e-01
5.89500000e+02	3.58898933e-01
5.90500000e+02	3.57418222e-01
5.91500000e+02	3.55956246e-01
5.92500000e+02	3.54513038e-01
5.93500000e+02	3.53088618e-01
5.94500000e+02	3.51682998e-01
5.95500000e+02	3.50296182e-01
5.96500000e+02	3.48928161e-01
5.97500000e+02	3.47578922e-01
5.98500000e+02	3.46248439e-01
5.99500000e+02	3.44936681e-01
6.00500000e+02	3.43643605e-01
6.01500000e+02	3.42369163e-01
6.02500000e+02	3.41113297e-01
6.03500000e+02	3.39875943e-01
6.04500000e+02	3.38657030e-01
6.05500000e+02	3.37456478e-01
6.06500000e+02	3.36274203e-01
6.07500000e+02	3.35110112e-01
6.08500000e+02	3.33964107e-01
6.09500000e+02	3.32836085e-01
6.10500000e+02	3.31725937e-01
6.11500000e+02	3.30633548e-01
6.12500000e+02	3.29558799e-01
6.13500000e+02	3.28501566e-01
6.14500000e+02	3.27461722e-01
6.15500000e+02	3.26439135e-01
6.16500000e+02	3.25433668e-01
6.17500000e+02	3.24445183e-01
6.18500000e+02	3.23473538e-01
6.19500000e+02	3.22518588e-01
6.20500000e+02	3.21580187e-01
6.21500000e+02	3.20658184e-01
6.22500000e+02	3.19752430e-01
6.23500000e+02	3.18862771e-01
6.24500000e+02	3.17989053e-01
6.25500000e+02	3.17131122e-01
6.26500000e+02	3.16288822e-01
6.27500000e+02	3.15461995e-01
6.28500000e+02	3.14650485e-01
6.29500000e+02	3.13854135e-01
6.30500000e+02	3.13072789e-01
6.31500000e+02	3.12306289e-01
6.32500000e+02	3.11554479e-01
6.33500000e+02	3.10817205e-01
6.34500000e+02	3.10094312e-01
6.35500000e+02	3.09385646e-01
6.36500000e+02	3.08691055e-01
6.37500000e+02	3.08010389e-01
6.38500000e+02	3.07343497e-01
6.39500000e+02	3.06690233e-01
6.40500000e+02	3.06050452e-01
6.41500000e+02	3.05424009e-01
6.42500000e+02	3.04810763e-01
6.43500000e+02	3.04210574e-01
6.44500000e+02	3.03623305e-01
6.45500000e+02	3.03048821e-01
6.46500000e+02	3.02486990e-01
6.47500000e+02	3.01937681e-01
6.48500000e+02	3.01400768e-01
6.49500000e+02	3.00876126e-01
6.50500000e+02	3.00363632e-01
6.51500000e+02	2.99863167e-01
6.52500000e+02	2.99374615e-01
6.53500000e+02	2.98897863e-01
6.54500000e+02	2.98432799e-01
6.55500000e+02	2.97979316e-01
6.56500000e+02	2.97537308e-01
6.57500000e+02	2.97106675e-01
6.58500000e+02	2.96687316e-01
6.59500000e+02	2.96279136e-01
6.60500000e+02	2.95882042e-01
