# Profil de ElecX au temps 2.000999999999940e-11 
# simu : /Volumes/MERCURE/JOBS/Zeq1_tanh_50mic_5e20_B0_20ps/GNU/ElecX@y-c.set
# col 0 : abscisse (um)
# col 1 : ElecX (V/m)
0.00000000e+00	0.00000000e+00
1.00000000e+00	4.19451649e+03
2.00000000e+00	3.34689511e+03
3.00000000e+00	4.68676987e+03
4.00000000e+00	7.76363690e+03
5.00000000e+00	9.55847882e+03
6.00000000e+00	1.14455686e+04
7.00000000e+00	1.33520492e+04
8.00000000e+00	1.52618735e+04
9.00000000e+00	1.71733353e+04
1.00000000e+01	1.90863454e+04
1.10000000e+01	2.10010550e+04
1.20000000e+01	2.29174916e+04
1.30000000e+01	2.48360131e+04
1.40000000e+01	2.67565785e+04
1.50000000e+01	2.86795554e+04
1.60000000e+01	3.06050004e+04
1.70000000e+01	3.25330941e+04
1.80000000e+01	3.44638862e+04
1.90000000e+01	3.63977741e+04
2.00000000e+01	3.83347633e+04
2.10000000e+01	4.02751742e+04
2.20000000e+01	4.22187954e+04
2.30000000e+01	4.41662550e+04
2.40000000e+01	4.61175035e+04
2.50000000e+01	4.80727294e+04
2.60000000e+01	5.00320492e+04
2.70000000e+01	5.19957525e+04
2.80000000e+01	5.39637408e+04
2.90000000e+01	5.59366767e+04
3.00000000e+01	5.79142038e+04
3.10000000e+01	5.98968933e+04
3.20000000e+01	6.18846216e+04
3.30000000e+01	6.38775546e+04
3.40000000e+01	6.58762343e+04
3.50000000e+01	6.78805087e+04
3.60000000e+01	6.98905971e+04
3.70000000e+01	7.19065904e+04
3.80000000e+01	7.39290636e+04
3.90000000e+01	7.59575888e+04
4.00000000e+01	7.79926954e+04
4.10000000e+01	8.00346517e+04
4.20000000e+01	8.20835954e+04
4.30000000e+01	8.41392331e+04
4.40000000e+01	8.62021206e+04
4.50000000e+01	8.82730446e+04
4.60000000e+01	9.03507185e+04
4.70000000e+01	9.24366230e+04
4.80000000e+01	9.45305511e+04
4.90000000e+01	9.66321399e+04
5.00000000e+01	9.87425307e+04
5.10000000e+01	1.00861139e+05
5.20000000e+01	1.02988501e+05
5.30000000e+01	1.05124423e+05
5.40000000e+01	1.07269910e+05
5.50000000e+01	1.09424193e+05
5.60000000e+01	1.11587877e+05
5.70000000e+01	1.13761353e+05
5.80000000e+01	1.15944416e+05
5.90000000e+01	1.18137488e+05
6.00000000e+01	1.20340705e+05
6.10000000e+01	1.22554135e+05
6.20000000e+01	1.24778437e+05
6.30000000e+01	1.27012718e+05
6.40000000e+01	1.29258803e+05
6.50000000e+01	1.31515181e+05
6.60000000e+01	1.33783192e+05
6.70000000e+01	1.36062960e+05
6.80000000e+01	1.38353680e+05
6.90000000e+01	1.40656826e+05
7.00000000e+01	1.42971812e+05
7.10000000e+01	1.45299199e+05
7.20000000e+01	1.47638876e+05
7.30000000e+01	1.49991082e+05
7.40000000e+01	1.52356658e+05
7.50000000e+01	1.54734806e+05
7.60000000e+01	1.57126357e+05
7.70000000e+01	1.59531445e+05
7.80000000e+01	1.61950032e+05
7.90000000e+01	1.64382785e+05
8.00000000e+01	1.66829472e+05
8.10000000e+01	1.69290336e+05
8.20000000e+01	1.71765925e+05
8.30000000e+01	1.74256199e+05
8.40000000e+01	1.76761140e+05
8.50000000e+01	1.79281772e+05
8.60000000e+01	1.81817266e+05
8.70000000e+01	1.84368561e+05
8.80000000e+01	1.86935876e+05
8.90000000e+01	1.89518686e+05
9.00000000e+01	1.92118431e+05
9.10000000e+01	1.94734198e+05
9.20000000e+01	1.97366720e+05
9.30000000e+01	2.00016461e+05
9.40000000e+01	2.02682967e+05
9.50000000e+01	2.05367334e+05
9.60000000e+01	2.08069134e+05
9.70000000e+01	2.10788510e+05
9.80000000e+01	2.13526527e+05
9.90000000e+01	2.16282747e+05
1.00000000e+02	2.19057170e+05
1.01000000e+02	2.21850951e+05
1.02000000e+02	2.24663651e+05
1.03000000e+02	2.27495565e+05
1.04000000e+02	2.30347169e+05
1.05000000e+02	2.33218794e+05
1.06000000e+02	2.36110216e+05
1.07000000e+02	2.39022144e+05
1.08000000e+02	2.41954685e+05
1.09000000e+02	2.44908111e+05
1.10000000e+02	2.47882577e+05
1.11000000e+02	2.50878781e+05
1.12000000e+02	2.53895969e+05
1.13000000e+02	2.56936019e+05
1.14000000e+02	2.59997568e+05
1.15000000e+02	2.63081848e+05
1.16000000e+02	2.66189076e+05
1.17000000e+02	2.69319061e+05
1.18000000e+02	2.72472717e+05
1.19000000e+02	2.75649719e+05
1.20000000e+02	2.78850772e+05
1.21000000e+02	2.82076072e+05
1.22000000e+02	2.85325925e+05
1.23000000e+02	2.88600348e+05
1.24000000e+02	2.91899999e+05
1.25000000e+02	2.95225046e+05
1.26000000e+02	2.98575744e+05
1.27000000e+02	3.01952615e+05
1.28000000e+02	3.05355875e+05
1.29000000e+02	3.08785782e+05
1.30000000e+02	3.12242259e+05
1.31000000e+02	3.15726763e+05
1.32000000e+02	3.19238489e+05
1.33000000e+02	3.22777687e+05
1.34000000e+02	3.26346295e+05
1.35000000e+02	3.29942172e+05
1.36000000e+02	3.33568003e+05
1.37000000e+02	3.37222549e+05
1.38000000e+02	3.40907175e+05
1.39000000e+02	3.44621612e+05
1.40000000e+02	3.48366433e+05
1.41000000e+02	3.52142317e+05
1.42000000e+02	3.55948969e+05
1.43000000e+02	3.59787639e+05
1.44000000e+02	3.63657408e+05
1.45000000e+02	3.67560193e+05
1.46000000e+02	3.71495233e+05
1.47000000e+02	3.75463607e+05
1.48000000e+02	3.79464641e+05
1.49000000e+02	3.83500502e+05
1.50000000e+02	3.87569810e+05
1.51000000e+02	3.91673741e+05
1.52000000e+02	3.95812825e+05
1.53000000e+02	3.99987303e+05
1.54000000e+02	4.04197715e+05
1.55000000e+02	4.08444167e+05
1.56000000e+02	4.12727405e+05
1.57000000e+02	4.17047638e+05
1.58000000e+02	4.21405463e+05
1.59000000e+02	4.25801399e+05
1.60000000e+02	4.30235444e+05
1.61000000e+02	4.34708639e+05
1.62000000e+02	4.39221250e+05
1.63000000e+02	4.43773358e+05
1.64000000e+02	4.48365751e+05
1.65000000e+02	4.52998774e+05
1.66000000e+02	4.57673471e+05
1.67000000e+02	4.62389622e+05
1.68000000e+02	4.67147317e+05
1.69000000e+02	4.71948526e+05
1.70000000e+02	4.76792783e+05
1.71000000e+02	4.81679923e+05
1.72000000e+02	4.86612106e+05
1.73000000e+02	4.91588464e+05
1.74000000e+02	4.96610113e+05
1.75000000e+02	5.01677962e+05
1.76000000e+02	5.06791198e+05
1.77000000e+02	5.11952458e+05
1.78000000e+02	5.17159720e+05
1.79000000e+02	5.22416364e+05
1.80000000e+02	5.27719835e+05
1.81000000e+02	5.33074143e+05
1.82000000e+02	5.38476311e+05
1.83000000e+02	5.43930175e+05
1.84000000e+02	5.49433637e+05
1.85000000e+02	5.54989299e+05
1.86000000e+02	5.60596541e+05
1.87000000e+02	5.66256154e+05
1.88000000e+02	5.71969787e+05
1.89000000e+02	5.77736013e+05
1.90000000e+02	5.83557634e+05
1.91000000e+02	5.89434215e+05
1.92000000e+02	5.95365745e+05
1.93000000e+02	6.01354588e+05
1.94000000e+02	6.07399917e+05
1.95000000e+02	6.13502938e+05
1.96000000e+02	6.19664466e+05
1.97000000e+02	6.25885093e+05
1.98000000e+02	6.32165032e+05
1.99000000e+02	6.38505789e+05
2.00000000e+02	6.44907741e+05
2.01000000e+02	6.51370906e+05
2.02000000e+02	6.57897148e+05
2.03000000e+02	6.64486585e+05
2.04000000e+02	6.71139991e+05
2.05000000e+02	6.77857867e+05
2.06000000e+02	6.84641555e+05
2.07000000e+02	6.91491457e+05
2.08000000e+02	6.98408421e+05
2.09000000e+02	7.05392846e+05
2.10000000e+02	7.12446238e+05
2.11000000e+02	7.19568842e+05
2.12000000e+02	7.26761787e+05
2.13000000e+02	7.34025451e+05
2.14000000e+02	7.41361053e+05
2.15000000e+02	7.48769409e+05
2.16000000e+02	7.56251105e+05
2.17000000e+02	7.63807323e+05
2.18000000e+02	7.71438462e+05
2.19000000e+02	7.79145863e+05
2.20000000e+02	7.86930034e+05
2.21000000e+02	7.94792253e+05
2.22000000e+02	8.02732949e+05
2.23000000e+02	8.10753461e+05
2.24000000e+02	8.18854462e+05
2.25000000e+02	8.27036715e+05
2.26000000e+02	8.35301622e+05
2.27000000e+02	8.43649753e+05
2.28000000e+02	8.52082194e+05
2.29000000e+02	8.60599932e+05
2.30000000e+02	8.69203821e+05
2.31000000e+02	8.77894991e+05
2.32000000e+02	8.86674381e+05
2.33000000e+02	8.95542916e+05
2.34000000e+02	9.04501703e+05
2.35000000e+02	9.13551779e+05
2.36000000e+02	9.22694162e+05
2.37000000e+02	9.31929858e+05
2.38000000e+02	9.41259978e+05
2.39000000e+02	9.50685584e+05
2.40000000e+02	9.60207741e+05
2.41000000e+02	9.69827529e+05
2.42000000e+02	9.79546100e+05
2.43000000e+02	9.89364500e+05
2.44000000e+02	9.99283907e+05
2.45000000e+02	1.00930544e+06
2.46000000e+02	1.01943021e+06
2.47000000e+02	1.02965941e+06
2.48000000e+02	1.03999417e+06
2.49000000e+02	1.05043577e+06
2.50000000e+02	1.06098535e+06
2.51000000e+02	1.07164411e+06
2.52000000e+02	1.08241325e+06
2.53000000e+02	1.09329393e+06
2.54000000e+02	1.10428753e+06
2.55000000e+02	1.11539523e+06
2.56000000e+02	1.12661832e+06
2.57000000e+02	1.13795808e+06
2.58000000e+02	1.14941576e+06
2.59000000e+02	1.16099268e+06
2.60000000e+02	1.17269014e+06
2.61000000e+02	1.18450947e+06
2.62000000e+02	1.19645198e+06
2.63000000e+02	1.20851904e+06
2.64000000e+02	1.22071200e+06
2.65000000e+02	1.23303224e+06
2.66000000e+02	1.24548113e+06
2.67000000e+02	1.25806006e+06
2.68000000e+02	1.27077046e+06
2.69000000e+02	1.28361370e+06
2.70000000e+02	1.29659128e+06
2.71000000e+02	1.30970459e+06
2.72000000e+02	1.32295509e+06
2.73000000e+02	1.33634427e+06
2.74000000e+02	1.34987358e+06
2.75000000e+02	1.36354448e+06
2.76000000e+02	1.37735843e+06
2.77000000e+02	1.39131720e+06
2.78000000e+02	1.40542216e+06
2.79000000e+02	1.41967484e+06
2.80000000e+02	1.43407681e+06
2.81000000e+02	1.44862962e+06
2.82000000e+02	1.46333485e+06
2.83000000e+02	1.47819411e+06
2.84000000e+02	1.49320897e+06
2.85000000e+02	1.50838107e+06
2.86000000e+02	1.52371202e+06
2.87000000e+02	1.53920346e+06
2.88000000e+02	1.55485705e+06
2.89000000e+02	1.57067444e+06
2.90000000e+02	1.58665731e+06
2.91000000e+02	1.60280734e+06
2.92000000e+02	1.61912623e+06
2.93000000e+02	1.63561570e+06
2.94000000e+02	1.65227745e+06
2.95000000e+02	1.66911323e+06
2.96000000e+02	1.68612477e+06
2.97000000e+02	1.70331384e+06
2.98000000e+02	1.72068219e+06
2.99000000e+02	1.73823162e+06
3.00000000e+02	1.75596390e+06
3.01000000e+02	1.77388084e+06
3.02000000e+02	1.79198425e+06
3.03000000e+02	1.81027596e+06
3.04000000e+02	1.82875779e+06
3.05000000e+02	1.84743159e+06
3.06000000e+02	1.86629922e+06
3.07000000e+02	1.88536255e+06
3.08000000e+02	1.90462345e+06
3.09000000e+02	1.92408380e+06
3.10000000e+02	1.94374551e+06
3.11000000e+02	1.96361048e+06
3.12000000e+02	1.98368063e+06
3.13000000e+02	2.00395788e+06
3.14000000e+02	2.02444418e+06
3.15000000e+02	2.04514147e+06
3.16000000e+02	2.06605171e+06
3.17000000e+02	2.08717686e+06
3.18000000e+02	2.10851890e+06
3.19000000e+02	2.13007981e+06
3.20000000e+02	2.15186158e+06
3.21000000e+02	2.17386622e+06
3.22000000e+02	2.19609573e+06
3.23000000e+02	2.21855214e+06
3.24000000e+02	2.24123747e+06
3.25000000e+02	2.26415375e+06
3.26000000e+02	2.28730303e+06
3.27000000e+02	2.31068736e+06
3.28000000e+02	2.33430880e+06
3.29000000e+02	2.35816941e+06
3.30000000e+02	2.38227126e+06
3.31000000e+02	2.40661643e+06
3.32000000e+02	2.43120701e+06
3.33000000e+02	2.45604509e+06
3.34000000e+02	2.48113277e+06
3.35000000e+02	2.50647216e+06
3.36000000e+02	2.53206536e+06
3.37000000e+02	2.55791449e+06
3.38000000e+02	2.58402168e+06
3.39000000e+02	2.61038904e+06
3.40000000e+02	2.63701873e+06
3.41000000e+02	2.66391286e+06
3.42000000e+02	2.69107358e+06
3.43000000e+02	2.71850305e+06
3.44000000e+02	2.74620340e+06
3.45000000e+02	2.77417680e+06
3.46000000e+02	2.80242539e+06
3.47000000e+02	2.83095136e+06
3.48000000e+02	2.85975685e+06
3.49000000e+02	2.88884403e+06
3.50000000e+02	2.91821509e+06
3.51000000e+02	2.94787218e+06
3.52000000e+02	2.97781749e+06
3.53000000e+02	3.00805319e+06
3.54000000e+02	3.03858146e+06
3.55000000e+02	3.06940449e+06
3.56000000e+02	3.10052445e+06
3.57000000e+02	3.13194353e+06
3.58000000e+02	3.16366392e+06
3.59000000e+02	3.19568779e+06
3.60000000e+02	3.22801734e+06
3.61000000e+02	3.26065474e+06
3.62000000e+02	3.29360219e+06
3.63000000e+02	3.32686187e+06
3.64000000e+02	3.36043596e+06
3.65000000e+02	3.39432664e+06
3.66000000e+02	3.42853611e+06
3.67000000e+02	3.46306653e+06
3.68000000e+02	3.49792009e+06
3.69000000e+02	3.53309896e+06
3.70000000e+02	3.56860533e+06
3.71000000e+02	3.60444135e+06
3.72000000e+02	3.64060921e+06
3.73000000e+02	3.67711106e+06
3.74000000e+02	3.71394908e+06
3.75000000e+02	3.75112542e+06
3.76000000e+02	3.78864223e+06
3.77000000e+02	3.82650167e+06
3.78000000e+02	3.86470589e+06
3.79000000e+02	3.90325702e+06
3.80000000e+02	3.94215721e+06
3.81000000e+02	3.98140859e+06
3.82000000e+02	4.02101328e+06
3.83000000e+02	4.06097340e+06
3.84000000e+02	4.10129106e+06
3.85000000e+02	4.14196838e+06
3.86000000e+02	4.18300744e+06
3.87000000e+02	4.22441035e+06
3.88000000e+02	4.26617918e+06
3.89000000e+02	4.30831601e+06
3.90000000e+02	4.35082290e+06
3.91000000e+02	4.39370191e+06
3.92000000e+02	4.43695508e+06
3.93000000e+02	4.48058445e+06
3.94000000e+02	4.52459204e+06
3.95000000e+02	4.56897985e+06
3.96000000e+02	4.61374990e+06
3.97000000e+02	4.65890416e+06
3.98000000e+02	4.70444460e+06
3.99000000e+02	4.75037318e+06
4.00000000e+02	4.79669183e+06
4.01000000e+02	4.84340248e+06
4.02000000e+02	4.89050703e+06
4.03000000e+02	4.93800737e+06
4.04000000e+02	4.98590535e+06
4.05000000e+02	5.03420283e+06
4.06000000e+02	5.08290162e+06
4.07000000e+02	5.13200351e+06
4.08000000e+02	5.18151028e+06
4.09000000e+02	5.23142366e+06
4.10000000e+02	5.28174537e+06
4.11000000e+02	5.33247709e+06
4.12000000e+02	5.38362047e+06
4.13000000e+02	5.43517711e+06
4.14000000e+02	5.48714860e+06
4.15000000e+02	5.53953646e+06
4.16000000e+02	5.59234219e+06
4.17000000e+02	5.64556723e+06
4.18000000e+02	5.69921297e+06
4.19000000e+02	5.75328076e+06
4.20000000e+02	5.80777188e+06
4.21000000e+02	5.86268756e+06
4.22000000e+02	5.91802896e+06
4.23000000e+02	5.97379718e+06
4.24000000e+02	6.02999323e+06
4.25000000e+02	6.08661807e+06
4.26000000e+02	6.14367254e+06
4.27000000e+02	6.20115742e+06
4.28000000e+02	6.25907339e+06
4.29000000e+02	6.31742100e+06
4.30000000e+02	6.37620074e+06
4.31000000e+02	6.43541295e+06
4.32000000e+02	6.49505785e+06
4.33000000e+02	6.55513552e+06
4.34000000e+02	6.61564593e+06
4.35000000e+02	6.67658886e+06
4.36000000e+02	6.73796395e+06
4.37000000e+02	6.79977067e+06
4.38000000e+02	6.86200828e+06
4.39000000e+02	6.92467587e+06
4.40000000e+02	6.98777231e+06
4.41000000e+02	7.05129625e+06
4.42000000e+02	7.11524608e+06
4.43000000e+02	7.17961995e+06
4.44000000e+02	7.24441575e+06
4.45000000e+02	7.30963106e+06
4.46000000e+02	7.37526314e+06
4.47000000e+02	7.44130895e+06
4.48000000e+02	7.50776506e+06
4.49000000e+02	7.57462770e+06
4.50000000e+02	7.64189268e+06
4.51000000e+02	7.70955537e+06
4.52000000e+02	7.77761072e+06
4.53000000e+02	7.84605315e+06
4.54000000e+02	7.91487661e+06
4.55000000e+02	7.98407448e+06
4.56000000e+02	8.05363953e+06
4.57000000e+02	8.12356396e+06
4.58000000e+02	8.19383927e+06
4.59000000e+02	8.26445628e+06
4.60000000e+02	8.33540503e+06
4.61000000e+02	8.40667480e+06
4.62000000e+02	8.47825402e+06
4.63000000e+02	8.55013020e+06
4.64000000e+02	8.62228993e+06
4.65000000e+02	8.69471876e+06
4.66000000e+02	8.76740120e+06
4.67000000e+02	8.84032060e+06
4.68000000e+02	8.91345910e+06
4.69000000e+02	8.98679759e+06
4.70000000e+02	9.06031557e+06
4.71000000e+02	9.13399114e+06
4.72000000e+02	9.20780086e+06
4.73000000e+02	9.28171969e+06
4.74000000e+02	9.35572090e+06
4.75000000e+02	9.42977596e+06
4.76000000e+02	9.50385442e+06
4.77000000e+02	9.57792387e+06
4.78000000e+02	9.65194974e+06
4.79000000e+02	9.72589528e+06
4.80000000e+02	9.79972136e+06
4.81000000e+02	9.87338637e+06
4.82000000e+02	9.94684611e+06
4.83000000e+02	1.00200537e+07
4.84000000e+02	1.00929592e+07
4.85000000e+02	1.01655099e+07
4.86000000e+02	1.02376498e+07
4.87000000e+02	1.03093196e+07
4.88000000e+02	1.03804565e+07
4.89000000e+02	1.04509942e+07
4.90000000e+02	1.05208625e+07
4.91000000e+02	1.05899874e+07
4.92000000e+02	1.06582907e+07
4.93000000e+02	1.07256900e+07
4.94000000e+02	1.07920986e+07
4.95000000e+02	1.08574252e+07
4.96000000e+02	1.09215738e+07
4.97000000e+02	1.09844437e+07
4.98000000e+02	1.10459291e+07
4.99000000e+02	1.11059193e+07
5.00000000e+02	1.11642984e+07
5.01000000e+02	1.12209455e+07
5.02000000e+02	1.12757341e+07
5.03000000e+02	1.13285327e+07
5.04000000e+02	1.13792044e+07
5.05000000e+02	1.14276071e+07
5.06000000e+02	1.14735934e+07
5.07000000e+02	1.15170111e+07
5.08000000e+02	1.15577029e+07
5.09000000e+02	1.15955069e+07
5.10000000e+02	1.16302569e+07
5.11000000e+02	1.16617826e+07
5.12000000e+02	1.16899102e+07
5.13000000e+02	1.17144625e+07
5.14000000e+02	1.17352601e+07
5.15000000e+02	1.17521216e+07
5.16000000e+02	1.17648642e+07
5.17000000e+02	1.17733053e+07
5.18000000e+02	1.17772627e+07
5.19000000e+02	1.17765558e+07
5.20000000e+02	1.17710070e+07
5.21000000e+02	1.17604430e+07
5.22000000e+02	1.17446955e+07
5.23000000e+02	1.17236033e+07
5.24000000e+02	1.16970135e+07
5.25000000e+02	1.16647831e+07
5.26000000e+02	1.16267807e+07
5.27000000e+02	1.15828881e+07
5.28000000e+02	1.15330019e+07
5.29000000e+02	1.14770354e+07
5.30000000e+02	1.14149200e+07
5.31000000e+02	1.13466072e+07
5.32000000e+02	1.12720694e+07
5.33000000e+02	1.11913023e+07
5.34000000e+02	1.11043254e+07
5.35000000e+02	1.10111831e+07
5.36000000e+02	1.09119461e+07
5.37000000e+02	1.08067117e+07
5.38000000e+02	1.06956041e+07
5.39000000e+02	1.05787748e+07
5.40000000e+02	1.04564019e+07
5.41000000e+02	1.03286901e+07
5.42000000e+02	1.01958696e+07
5.43000000e+02	1.00581950e+07
5.44000000e+02	9.91594352e+06
5.45000000e+02	9.76941368e+06
5.46000000e+02	9.61892289e+06
5.47000000e+02	9.46480524e+06
5.48000000e+02	9.30740896e+06
5.49000000e+02	9.14709372e+06
5.50000000e+02	8.98422775e+06
5.51000000e+02	8.81918500e+06
5.52000000e+02	8.65234210e+06
5.53000000e+02	8.48407552e+06
5.54000000e+02	8.31475863e+06
5.55000000e+02	8.14475900e+06
5.56000000e+02	7.97443580e+06
5.57000000e+02	7.80413736e+06
5.58000000e+02	7.63419901e+06
5.59000000e+02	7.46494116e+06
5.60000000e+02	7.29666757e+06
5.61000000e+02	7.12966404e+06
5.62000000e+02	6.96419719e+06
5.63000000e+02	6.80051369e+06
5.64000000e+02	6.63883971e+06
5.65000000e+02	6.47938053e+06
5.66000000e+02	6.32232056e+06
5.67000000e+02	6.16782347e+06
5.68000000e+02	6.01603255e+06
5.69000000e+02	5.86707126e+06
5.70000000e+02	5.72104393e+06
5.71000000e+02	5.57803659e+06
5.72000000e+02	5.43811788e+06
5.73000000e+02	5.30134008e+06
5.74000000e+02	5.16774016e+06
5.75000000e+02	5.03734092e+06
5.76000000e+02	4.91015208e+06
5.77000000e+02	4.78617143e+06
5.78000000e+02	4.66538594e+06
5.79000000e+02	4.54777285e+06
5.80000000e+02	4.43330073e+06
5.81000000e+02	4.32193050e+06
5.82000000e+02	4.21361638e+06
5.83000000e+02	4.10830680e+06
5.84000000e+02	4.00594528e+06
5.85000000e+02	3.90647120e+06
5.86000000e+02	3.80982052e+06
5.87000000e+02	3.71592648e+06
5.88000000e+02	3.62472020e+06
5.89000000e+02	3.53613122e+06
5.90000000e+02	3.45008801e+06
5.91000000e+02	3.36651844e+06
5.92000000e+02	3.28535014e+06
5.93000000e+02	3.20651084e+06
5.94000000e+02	3.12992874e+06
5.95000000e+02	3.05553269e+06
5.96000000e+02	2.98325248e+06
5.97000000e+02	2.91301899e+06
5.98000000e+02	2.84476441e+06
5.99000000e+02	2.77842229e+06
6.00000000e+02	2.71392773e+06
6.01000000e+02	2.65121742e+06
6.02000000e+02	2.59022970e+06
6.03000000e+02	2.53090465e+06
6.04000000e+02	2.47318408e+06
6.05000000e+02	2.41701159e+06
6.06000000e+02	2.36233252e+06
6.07000000e+02	2.30909400e+06
6.08000000e+02	2.25724492e+06
6.09000000e+02	2.20673589e+06
6.10000000e+02	2.15751926e+06
6.11000000e+02	2.10954904e+06
6.12000000e+02	2.06278088e+06
6.13000000e+02	2.01717206e+06
6.14000000e+02	1.97268140e+06
6.15000000e+02	1.92926925e+06
6.16000000e+02	1.88689745e+06
6.17000000e+02	1.84552924e+06
6.18000000e+02	1.80512927e+06
6.19000000e+02	1.76566351e+06
6.20000000e+02	1.72709921e+06
6.21000000e+02	1.68940489e+06
6.22000000e+02	1.65255023e+06
6.23000000e+02	1.61650609e+06
6.24000000e+02	1.58124442e+06
6.25000000e+02	1.54673823e+06
6.26000000e+02	1.51296154e+06
6.27000000e+02	1.47988939e+06
6.28000000e+02	1.44749769e+06
6.29000000e+02	1.41576332e+06
6.30000000e+02	1.38466397e+06
6.31000000e+02	1.35417817e+06
6.32000000e+02	1.32428525e+06
6.33000000e+02	1.29496529e+06
6.34000000e+02	1.26619909e+06
6.35000000e+02	1.23796814e+06
6.36000000e+02	1.21025461e+06
6.37000000e+02	1.18304128e+06
6.38000000e+02	1.15631156e+06
6.39000000e+02	1.13004943e+06
6.40000000e+02	1.10423942e+06
6.41000000e+02	1.07886659e+06
6.42000000e+02	1.05391652e+06
6.43000000e+02	1.02937527e+06
6.44000000e+02	1.00522936e+06
6.45000000e+02	9.81465759e+05
6.46000000e+02	9.58071847e+05
6.47000000e+02	9.35035423e+05
6.48000000e+02	9.12344669e+05
6.49000000e+02	8.89988133e+05
6.50000000e+02	8.67954722e+05
6.51000000e+02	8.46233676e+05
6.52000000e+02	8.24814560e+05
6.53000000e+02	8.03687244e+05
6.54000000e+02	7.82841894e+05
6.55000000e+02	7.62268957e+05
6.56000000e+02	7.41959143e+05
6.57000000e+02	7.21903422e+05
6.58000000e+02	7.02093003e+05
6.59000000e+02	6.82519331e+05
