# Profil de Te au temps 2.000999999999940e-11 
# simu : /Volumes/MERCURE/JOBS/Zeq1_tanh_50mic_5e20_B0_20ps/GNU/Te@y-c.set
# col 0 : abscisse (um)
# col 1 : Te (keV)
5.00000000e-01	9.89989391e-01
1.50000000e+00	9.89988725e-01
2.50000000e+00	9.89987441e-01
3.50000000e+00	9.89985515e-01
4.50000000e+00	9.89982932e-01
5.50000000e+00	9.89979705e-01
6.50000000e+00	9.89975833e-01
7.50000000e+00	9.89971314e-01
8.50000000e+00	9.89966148e-01
9.50000000e+00	9.89960336e-01
1.05000000e+01	9.89953876e-01
1.15000000e+01	9.89946768e-01
1.25000000e+01	9.89939010e-01
1.35000000e+01	9.89930603e-01
1.45000000e+01	9.89921545e-01
1.55000000e+01	9.89911835e-01
1.65000000e+01	9.89901473e-01
1.75000000e+01	9.89890457e-01
1.85000000e+01	9.89878787e-01
1.95000000e+01	9.89866460e-01
2.05000000e+01	9.89853476e-01
2.15000000e+01	9.89839834e-01
2.25000000e+01	9.89825531e-01
2.35000000e+01	9.89810568e-01
2.45000000e+01	9.89794941e-01
2.55000000e+01	9.89778650e-01
2.65000000e+01	9.89761692e-01
2.75000000e+01	9.89744067e-01
2.85000000e+01	9.89725772e-01
2.95000000e+01	9.89706805e-01
3.05000000e+01	9.89687165e-01
3.15000000e+01	9.89666849e-01
3.25000000e+01	9.89645856e-01
3.35000000e+01	9.89624183e-01
3.45000000e+01	9.89601828e-01
3.55000000e+01	9.89578788e-01
3.65000000e+01	9.89555062e-01
3.75000000e+01	9.89530647e-01
3.85000000e+01	9.89505540e-01
3.95000000e+01	9.89479739e-01
4.05000000e+01	9.89453241e-01
4.15000000e+01	9.89426044e-01
4.25000000e+01	9.89398144e-01
4.35000000e+01	9.89369539e-01
4.45000000e+01	9.89340226e-01
4.55000000e+01	9.89310201e-01
4.65000000e+01	9.89279462e-01
4.75000000e+01	9.89248006e-01
4.85000000e+01	9.89215829e-01
4.95000000e+01	9.89182927e-01
5.05000000e+01	9.89149298e-01
5.15000000e+01	9.89114938e-01
5.25000000e+01	9.89079844e-01
5.35000000e+01	9.89044011e-01
5.45000000e+01	9.89007436e-01
5.55000000e+01	9.88970115e-01
5.65000000e+01	9.88932044e-01
5.75000000e+01	9.88893220e-01
5.85000000e+01	9.88853638e-01
5.95000000e+01	9.88813293e-01
6.05000000e+01	9.88772183e-01
6.15000000e+01	9.88730302e-01
6.25000000e+01	9.88687647e-01
6.35000000e+01	9.88644212e-01
6.45000000e+01	9.88599993e-01
6.55000000e+01	9.88554985e-01
6.65000000e+01	9.88509184e-01
6.75000000e+01	9.88462585e-01
6.85000000e+01	9.88415182e-01
6.95000000e+01	9.88366972e-01
7.05000000e+01	9.88317948e-01
7.15000000e+01	9.88268106e-01
7.25000000e+01	9.88217440e-01
7.35000000e+01	9.88165945e-01
7.45000000e+01	9.88113615e-01
7.55000000e+01	9.88060445e-01
7.65000000e+01	9.88006429e-01
7.75000000e+01	9.87951562e-01
7.85000000e+01	9.87895837e-01
7.95000000e+01	9.87839249e-01
8.05000000e+01	9.87781791e-01
8.15000000e+01	9.87723458e-01
8.25000000e+01	9.87664243e-01
8.35000000e+01	9.87604139e-01
8.45000000e+01	9.87543141e-01
8.55000000e+01	9.87481242e-01
8.65000000e+01	9.87418434e-01
8.75000000e+01	9.87354712e-01
8.85000000e+01	9.87290069e-01
8.95000000e+01	9.87224497e-01
9.05000000e+01	9.87157989e-01
9.15000000e+01	9.87090539e-01
9.25000000e+01	9.87022138e-01
9.35000000e+01	9.86952780e-01
9.45000000e+01	9.86882457e-01
9.55000000e+01	9.86811161e-01
9.65000000e+01	9.86738885e-01
9.75000000e+01	9.86665621e-01
9.85000000e+01	9.86591361e-01
9.95000000e+01	9.86516096e-01
1.00500000e+02	9.86439819e-01
1.01500000e+02	9.86362520e-01
1.02500000e+02	9.86284193e-01
1.03500000e+02	9.86204828e-01
1.04500000e+02	9.86124416e-01
1.05500000e+02	9.86042949e-01
1.06500000e+02	9.85960418e-01
1.07500000e+02	9.85876813e-01
1.08500000e+02	9.85792126e-01
1.09500000e+02	9.85706348e-01
1.10500000e+02	9.85619468e-01
1.11500000e+02	9.85531477e-01
1.12500000e+02	9.85442366e-01
1.13500000e+02	9.85352124e-01
1.14500000e+02	9.85260743e-01
1.15500000e+02	9.85168211e-01
1.16500000e+02	9.85074518e-01
1.17500000e+02	9.84979655e-01
1.18500000e+02	9.84883610e-01
1.19500000e+02	9.84786373e-01
1.20500000e+02	9.84687933e-01
1.21500000e+02	9.84588280e-01
1.22500000e+02	9.84487402e-01
1.23500000e+02	9.84385287e-01
1.24500000e+02	9.84281926e-01
1.25500000e+02	9.84177306e-01
1.26500000e+02	9.84071415e-01
1.27500000e+02	9.83964241e-01
1.28500000e+02	9.83855774e-01
1.29500000e+02	9.83746000e-01
1.30500000e+02	9.83634908e-01
1.31500000e+02	9.83522484e-01
1.32500000e+02	9.83408717e-01
1.33500000e+02	9.83293594e-01
1.34500000e+02	9.83177101e-01
1.35500000e+02	9.83059227e-01
1.36500000e+02	9.82939957e-01
1.37500000e+02	9.82819278e-01
1.38500000e+02	9.82697177e-01
1.39500000e+02	9.82573640e-01
1.40500000e+02	9.82448653e-01
1.41500000e+02	9.82322201e-01
1.42500000e+02	9.82194270e-01
1.43500000e+02	9.82064847e-01
1.44500000e+02	9.81933916e-01
1.45500000e+02	9.81801463e-01
1.46500000e+02	9.81667472e-01
1.47500000e+02	9.81531928e-01
1.48500000e+02	9.81394816e-01
1.49500000e+02	9.81256120e-01
1.50500000e+02	9.81115825e-01
1.51500000e+02	9.80973914e-01
1.52500000e+02	9.80830372e-01
1.53500000e+02	9.80685182e-01
1.54500000e+02	9.80538328e-01
1.55500000e+02	9.80389792e-01
1.56500000e+02	9.80239558e-01
1.57500000e+02	9.80087608e-01
1.58500000e+02	9.79933926e-01
1.59500000e+02	9.79778493e-01
1.60500000e+02	9.79621292e-01
1.61500000e+02	9.79462305e-01
1.62500000e+02	9.79301513e-01
1.63500000e+02	9.79138898e-01
1.64500000e+02	9.78974441e-01
1.65500000e+02	9.78808123e-01
1.66500000e+02	9.78639926e-01
1.67500000e+02	9.78469829e-01
1.68500000e+02	9.78297813e-01
1.69500000e+02	9.78123859e-01
1.70500000e+02	9.77947946e-01
1.71500000e+02	9.77770053e-01
1.72500000e+02	9.77590160e-01
1.73500000e+02	9.77408247e-01
1.74500000e+02	9.77224292e-01
1.75500000e+02	9.77038273e-01
1.76500000e+02	9.76850169e-01
1.77500000e+02	9.76659959e-01
1.78500000e+02	9.76467619e-01
1.79500000e+02	9.76273128e-01
1.80500000e+02	9.76076463e-01
1.81500000e+02	9.75877601e-01
1.82500000e+02	9.75676518e-01
1.83500000e+02	9.75473191e-01
1.84500000e+02	9.75267597e-01
1.85500000e+02	9.75059710e-01
1.86500000e+02	9.74849507e-01
1.87500000e+02	9.74636963e-01
1.88500000e+02	9.74422053e-01
1.89500000e+02	9.74204752e-01
1.90500000e+02	9.73985034e-01
1.91500000e+02	9.73762872e-01
1.92500000e+02	9.73538242e-01
1.93500000e+02	9.73311116e-01
1.94500000e+02	9.73081467e-01
1.95500000e+02	9.72849269e-01
1.96500000e+02	9.72614493e-01
1.97500000e+02	9.72377113e-01
1.98500000e+02	9.72137098e-01
1.99500000e+02	9.71894422e-01
2.00500000e+02	9.71649056e-01
2.01500000e+02	9.71400969e-01
2.02500000e+02	9.71150133e-01
2.03500000e+02	9.70896517e-01
2.04500000e+02	9.70640092e-01
2.05500000e+02	9.70380827e-01
2.06500000e+02	9.70118689e-01
2.07500000e+02	9.69853650e-01
2.08500000e+02	9.69585675e-01
2.09500000e+02	9.69314734e-01
2.10500000e+02	9.69040794e-01
2.11500000e+02	9.68763821e-01
2.12500000e+02	9.68483784e-01
2.13500000e+02	9.68200647e-01
2.14500000e+02	9.67914376e-01
2.15500000e+02	9.67624938e-01
2.16500000e+02	9.67332297e-01
2.17500000e+02	9.67036419e-01
2.18500000e+02	9.66737266e-01
2.19500000e+02	9.66434803e-01
2.20500000e+02	9.66128994e-01
2.21500000e+02	9.65819801e-01
2.22500000e+02	9.65507186e-01
2.23500000e+02	9.65191113e-01
2.24500000e+02	9.64871542e-01
2.25500000e+02	9.64548434e-01
2.26500000e+02	9.64221751e-01
2.27500000e+02	9.63891452e-01
2.28500000e+02	9.63557498e-01
2.29500000e+02	9.63219847e-01
2.30500000e+02	9.62878459e-01
2.31500000e+02	9.62533291e-01
2.32500000e+02	9.62184301e-01
2.33500000e+02	9.61831448e-01
2.34500000e+02	9.61474687e-01
2.35500000e+02	9.61113975e-01
2.36500000e+02	9.60749268e-01
2.37500000e+02	9.60380521e-01
2.38500000e+02	9.60007689e-01
2.39500000e+02	9.59630727e-01
2.40500000e+02	9.59249587e-01
2.41500000e+02	9.58864223e-01
2.42500000e+02	9.58474588e-01
2.43500000e+02	9.58080633e-01
2.44500000e+02	9.57682311e-01
2.45500000e+02	9.57279573e-01
2.46500000e+02	9.56872368e-01
2.47500000e+02	9.56460647e-01
2.48500000e+02	9.56044358e-01
2.49500000e+02	9.55623451e-01
2.50500000e+02	9.55197874e-01
2.51500000e+02	9.54767574e-01
2.52500000e+02	9.54332498e-01
2.53500000e+02	9.53892592e-01
2.54500000e+02	9.53447803e-01
2.55500000e+02	9.52998074e-01
2.56500000e+02	9.52543352e-01
2.57500000e+02	9.52083578e-01
2.58500000e+02	9.51618698e-01
2.59500000e+02	9.51148652e-01
2.60500000e+02	9.50673384e-01
2.61500000e+02	9.50192834e-01
2.62500000e+02	9.49706944e-01
2.63500000e+02	9.49215652e-01
2.64500000e+02	9.48718899e-01
2.65500000e+02	9.48216622e-01
2.66500000e+02	9.47708761e-01
2.67500000e+02	9.47195252e-01
2.68500000e+02	9.46676031e-01
2.69500000e+02	9.46151035e-01
2.70500000e+02	9.45620199e-01
2.71500000e+02	9.45083457e-01
2.72500000e+02	9.44540744e-01
2.73500000e+02	9.43991991e-01
2.74500000e+02	9.43437132e-01
2.75500000e+02	9.42876099e-01
2.76500000e+02	9.42308821e-01
2.77500000e+02	9.41735229e-01
2.78500000e+02	9.41155253e-01
2.79500000e+02	9.40568821e-01
2.80500000e+02	9.39975861e-01
2.81500000e+02	9.39376301e-01
2.82500000e+02	9.38770066e-01
2.83500000e+02	9.38157082e-01
2.84500000e+02	9.37537274e-01
2.85500000e+02	9.36910567e-01
2.86500000e+02	9.36276883e-01
2.87500000e+02	9.35636145e-01
2.88500000e+02	9.34988275e-01
2.89500000e+02	9.34333193e-01
2.90500000e+02	9.33670821e-01
2.91500000e+02	9.33001076e-01
2.92500000e+02	9.32323877e-01
2.93500000e+02	9.31639143e-01
2.94500000e+02	9.30946790e-01
2.95500000e+02	9.30246734e-01
2.96500000e+02	9.29538891e-01
2.97500000e+02	9.28823174e-01
2.98500000e+02	9.28099498e-01
2.99500000e+02	9.27367774e-01
3.00500000e+02	9.26627916e-01
3.01500000e+02	9.25879833e-01
3.02500000e+02	9.25123437e-01
3.03500000e+02	9.24358636e-01
3.04500000e+02	9.23585339e-01
3.05500000e+02	9.22803454e-01
3.06500000e+02	9.22012887e-01
3.07500000e+02	9.21213545e-01
3.08500000e+02	9.20405331e-01
3.09500000e+02	9.19588152e-01
3.10500000e+02	9.18761909e-01
3.11500000e+02	9.17926505e-01
3.12500000e+02	9.17081842e-01
3.13500000e+02	9.16227821e-01
3.14500000e+02	9.15364341e-01
3.15500000e+02	9.14491302e-01
3.16500000e+02	9.13608600e-01
3.17500000e+02	9.12716134e-01
3.18500000e+02	9.11813800e-01
3.19500000e+02	9.10901494e-01
3.20500000e+02	9.09979109e-01
3.21500000e+02	9.09046539e-01
3.22500000e+02	9.08103677e-01
3.23500000e+02	9.07150416e-01
3.24500000e+02	9.06186646e-01
3.25500000e+02	9.05212256e-01
3.26500000e+02	9.04227138e-01
3.27500000e+02	9.03231178e-01
3.28500000e+02	9.02224264e-01
3.29500000e+02	9.01206284e-01
3.30500000e+02	9.00177121e-01
3.31500000e+02	8.99136663e-01
3.32500000e+02	8.98084792e-01
3.33500000e+02	8.97021391e-01
3.34500000e+02	8.95946344e-01
3.35500000e+02	8.94859531e-01
3.36500000e+02	8.93760832e-01
3.37500000e+02	8.92650128e-01
3.38500000e+02	8.91527298e-01
3.39500000e+02	8.90392218e-01
3.40500000e+02	8.89244767e-01
3.41500000e+02	8.88084821e-01
3.42500000e+02	8.86912256e-01
3.43500000e+02	8.85726945e-01
3.44500000e+02	8.84528762e-01
3.45500000e+02	8.83317582e-01
3.46500000e+02	8.82093275e-01
3.47500000e+02	8.80855714e-01
3.48500000e+02	8.79604768e-01
3.49500000e+02	8.78340309e-01
3.50500000e+02	8.77062203e-01
3.51500000e+02	8.75770321e-01
3.52500000e+02	8.74464529e-01
3.53500000e+02	8.73144694e-01
3.54500000e+02	8.71810683e-01
3.55500000e+02	8.70462359e-01
3.56500000e+02	8.69099588e-01
3.57500000e+02	8.67722234e-01
3.58500000e+02	8.66330159e-01
3.59500000e+02	8.64923227e-01
3.60500000e+02	8.63501297e-01
3.61500000e+02	8.62064233e-01
3.62500000e+02	8.60611893e-01
3.63500000e+02	8.59144137e-01
3.64500000e+02	8.57660825e-01
3.65500000e+02	8.56161815e-01
3.66500000e+02	8.54646965e-01
3.67500000e+02	8.53116131e-01
3.68500000e+02	8.51569171e-01
3.69500000e+02	8.50005939e-01
3.70500000e+02	8.48426293e-01
3.71500000e+02	8.46830086e-01
3.72500000e+02	8.45217173e-01
3.73500000e+02	8.43587407e-01
3.74500000e+02	8.41940643e-01
3.75500000e+02	8.40276732e-01
3.76500000e+02	8.38595527e-01
3.77500000e+02	8.36896881e-01
3.78500000e+02	8.35180643e-01
3.79500000e+02	8.33446667e-01
3.80500000e+02	8.31694801e-01
3.81500000e+02	8.29924897e-01
3.82500000e+02	8.28136805e-01
3.83500000e+02	8.26330373e-01
3.84500000e+02	8.24505452e-01
3.85500000e+02	8.22661890e-01
3.86500000e+02	8.20799535e-01
3.87500000e+02	8.18918237e-01
3.88500000e+02	8.17017844e-01
3.89500000e+02	8.15098203e-01
3.90500000e+02	8.13159162e-01
3.91500000e+02	8.11200570e-01
3.92500000e+02	8.09222273e-01
3.93500000e+02	8.07224119e-01
3.94500000e+02	8.05205956e-01
3.95500000e+02	8.03167630e-01
3.96500000e+02	8.01108989e-01
3.97500000e+02	7.99029880e-01
3.98500000e+02	7.96930151e-01
3.99500000e+02	7.94809649e-01
4.00500000e+02	7.92668221e-01
4.01500000e+02	7.90505716e-01
4.02500000e+02	7.88321980e-01
4.03500000e+02	7.86116862e-01
4.04500000e+02	7.83890209e-01
4.05500000e+02	7.81641871e-01
4.06500000e+02	7.79371697e-01
4.07500000e+02	7.77079534e-01
4.08500000e+02	7.74765234e-01
4.09500000e+02	7.72428645e-01
4.10500000e+02	7.70069618e-01
4.11500000e+02	7.67688003e-01
4.12500000e+02	7.65283653e-01
4.13500000e+02	7.62856420e-01
4.14500000e+02	7.60406155e-01
4.15500000e+02	7.57932713e-01
4.16500000e+02	7.55435947e-01
4.17500000e+02	7.52915712e-01
4.18500000e+02	7.50371864e-01
4.19500000e+02	7.47804260e-01
4.20500000e+02	7.45212758e-01
4.21500000e+02	7.42597216e-01
4.22500000e+02	7.39957493e-01
4.23500000e+02	7.37293452e-01
4.24500000e+02	7.34604953e-01
4.25500000e+02	7.31891861e-01
4.26500000e+02	7.29154041e-01
4.27500000e+02	7.26391359e-01
4.28500000e+02	7.23603682e-01
4.29500000e+02	7.20790881e-01
4.30500000e+02	7.17952827e-01
4.31500000e+02	7.15089394e-01
4.32500000e+02	7.12200455e-01
4.33500000e+02	7.09285889e-01
4.34500000e+02	7.06345574e-01
4.35500000e+02	7.03379393e-01
4.36500000e+02	7.00387229e-01
4.37500000e+02	6.97368969e-01
4.38500000e+02	6.94324501e-01
4.39500000e+02	6.91253719e-01
4.40500000e+02	6.88156517e-01
4.41500000e+02	6.85032793e-01
4.42500000e+02	6.81882447e-01
4.43500000e+02	6.78705386e-01
4.44500000e+02	6.75501517e-01
4.45500000e+02	6.72270753e-01
4.46500000e+02	6.69013009e-01
4.47500000e+02	6.65728205e-01
4.48500000e+02	6.62416268e-01
4.49500000e+02	6.59077126e-01
4.50500000e+02	6.55710714e-01
4.51500000e+02	6.52316970e-01
4.52500000e+02	6.48895841e-01
4.53500000e+02	6.45447277e-01
4.54500000e+02	6.41971235e-01
4.55500000e+02	6.38467678e-01
4.56500000e+02	6.34936576e-01
4.57500000e+02	6.31377905e-01
4.58500000e+02	6.27791650e-01
4.59500000e+02	6.24177803e-01
4.60500000e+02	6.20536364e-01
4.61500000e+02	6.16867342e-01
4.62500000e+02	6.13170755e-01
4.63500000e+02	6.09446630e-01
4.64500000e+02	6.05695006e-01
4.65500000e+02	6.01915929e-01
4.66500000e+02	5.98109460e-01
4.67500000e+02	5.94275669e-01
4.68500000e+02	5.90414640e-01
4.69500000e+02	5.86526468e-01
4.70500000e+02	5.82611263e-01
4.71500000e+02	5.78669151e-01
4.72500000e+02	5.74700269e-01
4.73500000e+02	5.70704773e-01
4.74500000e+02	5.66682834e-01
4.75500000e+02	5.62634642e-01
4.76500000e+02	5.58560404e-01
4.77500000e+02	5.54460348e-01
4.78500000e+02	5.50334719e-01
4.79500000e+02	5.46183786e-01
4.80500000e+02	5.42007841e-01
4.81500000e+02	5.37807196e-01
4.82500000e+02	5.33582192e-01
4.83500000e+02	5.29333191e-01
4.84500000e+02	5.25060587e-01
4.85500000e+02	5.20764797e-01
4.86500000e+02	5.16446272e-01
4.87500000e+02	5.12105492e-01
4.88500000e+02	5.07742968e-01
4.89500000e+02	5.03359249e-01
4.90500000e+02	4.98954915e-01
4.91500000e+02	4.94530586e-01
4.92500000e+02	4.90086917e-01
4.93500000e+02	4.85624607e-01
4.94500000e+02	4.81144395e-01
4.95500000e+02	4.76647061e-01
4.96500000e+02	4.72133435e-01
4.97500000e+02	4.67604390e-01
4.98500000e+02	4.63060848e-01
4.99500000e+02	4.58503782e-01
5.00500000e+02	4.53934216e-01
5.01500000e+02	4.49353228e-01
5.02500000e+02	4.44761951e-01
5.03500000e+02	4.40161575e-01
5.04500000e+02	4.35553346e-01
5.05500000e+02	4.30938571e-01
5.06500000e+02	4.26318619e-01
5.07500000e+02	4.21694918e-01
5.08500000e+02	4.17068961e-01
5.09500000e+02	4.12442302e-01
5.10500000e+02	4.07816563e-01
5.11500000e+02	4.03193427e-01
5.12500000e+02	3.98574643e-01
5.13500000e+02	3.93962024e-01
5.14500000e+02	3.89357448e-01
5.15500000e+02	3.84762853e-01
5.16500000e+02	3.80180242e-01
5.17500000e+02	3.75611674e-01
5.18500000e+02	3.71059269e-01
5.19500000e+02	3.66525198e-01
5.20500000e+02	3.62011687e-01
5.21500000e+02	3.57521007e-01
5.22500000e+02	3.53055472e-01
5.23500000e+02	3.48617435e-01
5.24500000e+02	3.44209283e-01
5.25500000e+02	3.39833425e-01
5.26500000e+02	3.35492292e-01
5.27500000e+02	3.31188326e-01
5.28500000e+02	3.26923973e-01
5.29500000e+02	3.22701673e-01
5.30500000e+02	3.18523853e-01
5.31500000e+02	3.14392915e-01
5.32500000e+02	3.10311227e-01
5.33500000e+02	3.06281114e-01
5.34500000e+02	3.02304845e-01
5.35500000e+02	2.98384623e-01
5.36500000e+02	2.94522577e-01
5.37500000e+02	2.90720747e-01
5.38500000e+02	2.86981076e-01
5.39500000e+02	2.83305401e-01
5.40500000e+02	2.79695441e-01
5.41500000e+02	2.76152789e-01
5.42500000e+02	2.72678907e-01
5.43500000e+02	2.69275110e-01
5.44500000e+02	2.65942571e-01
5.45500000e+02	2.62682307e-01
5.46500000e+02	2.59495178e-01
5.47500000e+02	2.56381883e-01
5.48500000e+02	2.53342961e-01
5.49500000e+02	2.50378785e-01
5.50500000e+02	2.47489570e-01
5.51500000e+02	2.44675368e-01
5.52500000e+02	2.41936074e-01
5.53500000e+02	2.39271431e-01
5.54500000e+02	2.36681035e-01
5.55500000e+02	2.34164340e-01
5.56500000e+02	2.31720666e-01
5.57500000e+02	2.29349205e-01
5.58500000e+02	2.27049035e-01
5.59500000e+02	2.24819120e-01
5.60500000e+02	2.22658329e-01
5.61500000e+02	2.20565438e-01
5.62500000e+02	2.18539142e-01
5.63500000e+02	2.16578067e-01
5.64500000e+02	2.14680777e-01
5.65500000e+02	2.12845784e-01
5.66500000e+02	2.11071557e-01
5.67500000e+02	2.09356532e-01
5.68500000e+02	2.07699117e-01
5.69500000e+02	2.06097706e-01
5.70500000e+02	2.04550677e-01
5.71500000e+02	2.03056410e-01
5.72500000e+02	2.01613285e-01
5.73500000e+02	2.00219690e-01
5.74500000e+02	1.98874029e-01
5.75500000e+02	1.97574721e-01
5.76500000e+02	1.96320210e-01
5.77500000e+02	1.95108967e-01
5.78500000e+02	1.93939489e-01
5.79500000e+02	1.92810308e-01
5.80500000e+02	1.91719989e-01
5.81500000e+02	1.90667131e-01
5.82500000e+02	1.89650375e-01
5.83500000e+02	1.88668396e-01
5.84500000e+02	1.87719911e-01
5.85500000e+02	1.86803675e-01
5.86500000e+02	1.85918486e-01
5.87500000e+02	1.85063179e-01
5.88500000e+02	1.84236631e-01
5.89500000e+02	1.83437757e-01
5.90500000e+02	1.82665513e-01
5.91500000e+02	1.81918892e-01
5.92500000e+02	1.81196926e-01
5.93500000e+02	1.80498683e-01
5.94500000e+02	1.79823267e-01
5.95500000e+02	1.79169818e-01
5.96500000e+02	1.78537509e-01
5.97500000e+02	1.77925548e-01
5.98500000e+02	1.77333174e-01
5.99500000e+02	1.76759655e-01
6.00500000e+02	1.76204293e-01
6.01500000e+02	1.75666415e-01
6.02500000e+02	1.75145378e-01
6.03500000e+02	1.74640566e-01
6.04500000e+02	1.74151386e-01
6.05500000e+02	1.73677273e-01
6.06500000e+02	1.73217684e-01
6.07500000e+02	1.72772099e-01
6.08500000e+02	1.72340019e-01
6.09500000e+02	1.71920967e-01
6.10500000e+02	1.71514486e-01
6.11500000e+02	1.71120137e-01
6.12500000e+02	1.70737500e-01
6.13500000e+02	1.70366173e-01
6.14500000e+02	1.70005770e-01
6.15500000e+02	1.69655921e-01
6.16500000e+02	1.69316272e-01
6.17500000e+02	1.68986483e-01
6.18500000e+02	1.68666228e-01
6.19500000e+02	1.68355195e-01
6.20500000e+02	1.68053084e-01
6.21500000e+02	1.67759607e-01
6.22500000e+02	1.67474490e-01
6.23500000e+02	1.67197467e-01
6.24500000e+02	1.66928285e-01
6.25500000e+02	1.66666699e-01
6.26500000e+02	1.66412477e-01
6.27500000e+02	1.66165392e-01
6.28500000e+02	1.65925231e-01
6.29500000e+02	1.65691784e-01
6.30500000e+02	1.65464855e-01
6.31500000e+02	1.65244251e-01
6.32500000e+02	1.65029788e-01
6.33500000e+02	1.64821291e-01
6.34500000e+02	1.64618590e-01
6.35500000e+02	1.64421521e-01
6.36500000e+02	1.64229928e-01
6.37500000e+02	1.64043660e-01
6.38500000e+02	1.63862573e-01
6.39500000e+02	1.63686526e-01
6.40500000e+02	1.63515387e-01
6.41500000e+02	1.63349025e-01
6.42500000e+02	1.63187317e-01
6.43500000e+02	1.63030144e-01
6.44500000e+02	1.62877391e-01
6.45500000e+02	1.62728948e-01
6.46500000e+02	1.62584707e-01
6.47500000e+02	1.62444568e-01
6.48500000e+02	1.62308431e-01
6.49500000e+02	1.62176201e-01
6.50500000e+02	1.62047789e-01
6.51500000e+02	1.61923106e-01
6.52500000e+02	1.61802068e-01
6.53500000e+02	1.61684594e-01
6.54500000e+02	1.61570605e-01
6.55500000e+02	1.61460027e-01
6.56500000e+02	1.61352788e-01
6.57500000e+02	1.61248818e-01
6.58500000e+02	1.61148051e-01
6.59500000e+02	1.61050422e-01
6.60500000e+02	1.60955871e-01
