# Profil de ElecX au temps 2.000999999999940e-11 
# simu : /Volumes/MERCURE/JOBS/4milan_5e19_Z2/GNU/ElecX@y-c.set
# col 0 : abscisse (um)
# col 1 : ElecX (V/m)
0.000000	0.000000
1.000000	6354.166927
2.000000	7482.846817
3.000000	10789.752394
4.000000	16032.816976
5.000000	19890.320095
6.000000	23838.331964
7.000000	27810.664196
8.000000	31782.489724
9.000000	35752.632566
10.000000	39725.147839
11.000000	43696.445079
12.000000	47666.248179
13.000000	51638.159679
14.000000	55608.959636
15.000000	59577.106676
16.000000	63548.640964
17.000000	67516.557760
18.000000	71487.746992
19.000000	75453.934293
20.000000	79424.497942
21.000000	83392.216331
22.000000	87359.022886
23.000000	91327.150209
24.000000	95295.341043
25.000000	99259.781290
26.000000	103226.824633
27.000000	107192.448331
28.000000	111158.833432
29.000000	115121.592222
30.000000	119086.853822
31.000000	123050.345189
32.000000	127014.129371
33.000000	130975.779004
34.000000	134937.811871
35.000000	138899.440599
36.000000	142860.467411
37.000000	146820.921826
38.000000	150779.250434
39.000000	154738.707299
40.000000	158697.030990
41.000000	162654.569132
42.000000	166611.644761
43.000000	170566.885258
44.000000	174522.804720
45.000000	178477.359012
46.000000	182431.346400
47.000000	186385.129304
48.000000	190336.530983
49.000000	194288.501418
50.000000	198239.492481
51.000000	202189.555560
52.000000	206138.777070
53.000000	210087.941234
54.000000	214034.626724
55.000000	217981.876914
56.000000	221927.790037
57.000000	225873.279297
58.000000	229817.481194
59.000000	233761.448269
60.000000	237703.802103
61.000000	241645.437464
62.000000	245586.724518
63.000000	249526.938785
64.000000	253466.169886
65.000000	257404.633201
66.000000	261342.677854
67.000000	265279.221191
68.000000	269214.729174
69.000000	273150.283467
70.000000	277084.380127
71.000000	281017.739465
72.000000	284950.437297
73.000000	288882.320307
74.000000	292813.013202
75.000000	296743.568863
76.000000	300672.152810
77.000000	304600.792772
78.000000	308528.574095
79.000000	312455.412523
80.000000	316381.608299
81.000000	320307.158530
82.000000	324231.715194
83.000000	328155.657713
84.000000	332078.999774
85.000000	336000.886727
86.000000	339922.085399
87.000000	343841.249188
88.000000	347763.751002
89.000000	351683.135387
90.000000	355602.088145
91.000000	359520.116575
92.000000	363438.203147
93.000000	367355.764027
94.000000	371272.816035
95.000000	375189.350414
96.000000	379105.567284
97.000000	383021.513940
98.000000	386937.019713
99.000000	390851.827094
100.000000	394766.908419
101.000000	398681.643278
102.000000	402595.922177
103.000000	406510.236984
104.000000	410424.552660
105.000000	414338.304329
106.000000	418252.914321
107.000000	422166.371938
108.000000	426081.233691
109.000000	429994.935230
110.000000	433909.964908
111.000000	437824.165962
112.000000	441739.844511
113.000000	445654.637887
114.000000	449571.158130
115.000000	453486.966656
116.000000	457404.187333
117.000000	461321.774486
118.000000	465239.791890
119.000000	469159.313766
120.000000	473078.854956
121.000000	476999.880066
122.000000	480922.074907
123.000000	484844.644798
124.000000	488769.151997
125.000000	492694.895892
126.000000	496621.528215
127.000000	500550.010400
128.000000	504480.298826
129.000000	508411.758406
130.000000	512345.231414
131.000000	516280.719243
132.000000	520218.348954
133.000000	524157.646022
134.000000	528099.499357
135.000000	532043.698042
136.000000	535990.417834
137.000000	539939.885037
138.000000	543891.584324
139.000000	547846.557105
140.000000	551804.558700
141.000000	555765.658398
142.000000	559730.223532
143.000000	563698.046574
144.000000	567669.394019
145.000000	571644.704616
146.000000	575623.885986
147.000000	579607.231356
148.000000	583594.752568
149.000000	587586.550096
150.000000	591583.099140
151.000000	595584.440041
152.000000	599590.721567
153.000000	603602.021894
154.000000	607618.894089
155.000000	611641.110788
156.000000	615669.188761
157.000000	619702.778120
158.000000	623741.630178
159.000000	627789.945699
160.000000	631842.822872
161.000000	635902.908692
162.000000	639969.648072
163.000000	644043.859828
164.000000	648125.545510
165.000000	652214.762908
166.000000	656312.393234
167.000000	660417.746658
168.000000	664531.845054
169.000000	668654.823115
170.000000	672786.443553
171.000000	676927.605606
172.000000	681078.249437
173.000000	685238.776830
174.000000	689409.179535
175.000000	693590.222051
176.000000	697781.890847
177.000000	701984.576438
178.000000	706198.363749
179.000000	710423.935987
180.000000	714661.397189
181.000000	718911.099820
182.000000	723173.348034
183.000000	727448.492169
184.000000	731736.769150
185.000000	736038.713133
186.000000	740354.529358
187.000000	744684.596781
188.000000	749029.290581
189.000000	753388.950777
190.000000	757763.993946
191.000000	762154.657850
192.000000	766561.439357
193.000000	770984.713933
194.000000	775424.841861
195.000000	779882.215805
196.000000	784357.204690
197.000000	788850.296320
198.000000	793361.776362
199.000000	797892.184823
200.000000	802441.853624
201.000000	807011.271540
202.000000	811600.765354
203.000000	816210.950192
204.000000	820842.048969
205.000000	825494.676690
206.000000	830169.217871
207.000000	834866.144811
208.000000	839585.859514
209.000000	844328.978005
210.000000	849095.758496
211.000000	853886.942597
212.000000	858702.701101
213.000000	863543.805894
214.000000	868410.699738
215.000000	873303.691924
216.000000	878223.569446
217.000000	883170.638247
218.000000	888145.370678
219.000000	893148.446725
220.000000	898180.365055
221.000000	903241.625626
222.000000	908332.656183
223.000000	913454.216381
224.000000	918606.730659
225.000000	923790.779196
226.000000	929006.908545
227.000000	934255.626554
228.000000	939537.627155
229.000000	944853.393802
230.000000	950203.581365
231.000000	955588.709747
232.000000	961009.380618
233.000000	966466.196877
234.000000	971959.794387
235.000000	977490.728839
236.000000	983059.644393
237.000000	988667.155734
238.000000	994313.881088
239.000000	1000000.459191
240.000000	1005727.480674
241.000000	1011495.677168
242.000000	1017305.627367
243.000000	1023157.924720
244.000000	1029053.359026
245.000000	1034992.482653
246.000000	1040976.001044
247.000000	1047004.605103
248.000000	1053078.970083
249.000000	1059199.760590
250.000000	1065367.666920
251.000000	1071583.391867
252.000000	1077847.600698
253.000000	1084161.061812
254.000000	1090524.467855
255.000000	1096938.538846
256.000000	1103404.016874
257.000000	1109921.546661
258.000000	1116491.938594
259.000000	1123115.927154
260.000000	1129794.274727
261.000000	1136527.708852
262.000000	1143316.994107
263.000000	1150162.884072
264.000000	1157066.197825
265.000000	1164027.677958
266.000000	1171048.147762
267.000000	1178128.369703
268.000000	1185269.138876
269.000000	1192471.282906
270.000000	1199735.604614
271.000000	1207062.921944
272.000000	1214454.065562
273.000000	1221909.870323
274.000000	1229431.176232
275.000000	1237018.832154
276.000000	1244673.693545
277.000000	1252396.623567
278.000000	1260188.492603
279.000000	1268050.179386
280.000000	1275982.569493
281.000000	1283986.556468
282.000000	1292063.041534
283.000000	1300212.933365
284.000000	1308437.148725
285.000000	1316736.612602
286.000000	1325112.257956
287.000000	1333565.025980
288.000000	1342095.866014
289.000000	1350705.735771
290.000000	1359395.601014
291.000000	1368166.436265
292.000000	1377019.224233
293.000000	1385954.956131
294.000000	1394974.632108
295.000000	1404079.260491
296.000000	1413269.858481
297.000000	1422547.451850
298.000000	1431913.075117
299.000000	1441367.771550
300.000000	1450912.592966
301.000000	1460548.600092
302.000000	1470276.862523
303.000000	1480098.458354
304.000000	1490014.474215
305.000000	1500026.005708
306.000000	1510134.157183
307.000000	1520340.041167
308.000000	1530644.778962
309.000000	1541049.500513
310.000000	1551555.343992
311.000000	1562163.455664
312.000000	1572874.990423
313.000000	1583691.110909
314.000000	1594612.987845
315.000000	1605641.799811
316.000000	1616778.733017
317.000000	1628024.981096
318.000000	1639381.745226
319.000000	1650850.233507
320.000000	1662431.660939
321.000000	1674127.249817
322.000000	1685938.227279
323.000000	1697865.829580
324.000000	1709911.295284
325.000000	1722075.871640
326.000000	1734360.809619
327.000000	1746767.365489
328.000000	1759296.800558
329.000000	1771950.379729
330.000000	1784729.372730
331.000000	1797635.051995
332.000000	1810668.693484
333.000000	1823831.575696
334.000000	1837124.979317
335.000000	1850550.186813
336.000000	1864108.481596
337.000000	1877801.148318
338.000000	1891629.471094
339.000000	1905594.734010
340.000000	1919698.219981
341.000000	1933941.210424
342.000000	1948324.984159
343.000000	1962850.817322
344.000000	1977519.982315
345.000000	1992333.746793
346.000000	2007293.374035
347.000000	2022400.120831
348.000000	2037655.237273
349.000000	2053059.966283
350.000000	2068615.542177
351.000000	2084323.189801
352.000000	2100184.124497
353.000000	2116199.549894
354.000000	2132370.657627
355.000000	2148698.626761
356.000000	2165184.621796
357.000000	2181829.792435
358.000000	2198635.271968
359.000000	2215602.176785
360.000000	2232731.604233
361.000000	2250024.633010
362.000000	2267482.320265
363.000000	2285105.701678
364.000000	2302895.789462
365.000000	2320853.571555
366.000000	2338980.010183
367.000000	2357276.040115
368.000000	2375742.568362
369.000000	2394380.471536
370.000000	2413190.595414
371.000000	2432173.752965
372.000000	2451330.723425
373.000000	2470662.250014
374.000000	2490169.039605
375.000000	2509851.760073
376.000000	2529711.039255
377.000000	2549747.463940
378.000000	2569961.577180
379.000000	2590353.877766
380.000000	2610924.818009
381.000000	2631674.802376
382.000000	2652604.185827
383.000000	2673713.272421
384.000000	2695002.313236
385.000000	2716471.505285
386.000000	2738120.989315
387.000000	2759950.848823
388.000000	2781961.108090
389.000000	2804151.730351
390.000000	2826522.616726
391.000000	2849073.604356
392.000000	2871804.464683
393.000000	2894714.902148
394.000000	2917804.552710
395.000000	2941072.982133
396.000000	2964519.684516
397.000000	2988144.081052
398.000000	3011945.518468
399.000000	3035923.267790
400.000000	3060076.522807
401.000000	3084404.399033
402.000000	3108905.932346
403.000000	3133580.077773
404.000000	3158425.708783
405.000000	3183441.615515
406.000000	3208626.504437
407.000000	3233978.997333
408.000000	3259497.630107
409.000000	3285180.852596
410.000000	3311027.027331
411.000000	3337034.429475
412.000000	3363201.245884
413.000000	3389525.575114
414.000000	3416005.426885
415.000000	3442638.721829
416.000000	3469423.291607
417.000000	3496356.878704
418.000000	3523437.136835
419.000000	3550661.630685
420.000000	3578027.836758
421.000000	3605533.143366
422.000000	3633174.851654
423.000000	3660950.175728
424.000000	3688856.243725
425.000000	3716890.099023
426.000000	3745048.700175
427.000000	3773328.923195
428.000000	3801727.562061
429.000000	3830241.330192
430.000000	3858866.861664
431.000000	3887600.712810
432.000000	3916439.363854
433.000000	3945379.220335
434.000000	3974416.614706
435.000000	4003547.808466
436.000000	4032768.993394
437.000000	4062076.293787
438.000000	4091465.768046
439.000000	4120933.410557
440.000000	4150475.153490
441.000000	4180086.868987
442.000000	4209764.369955
443.000000	4239503.413098
444.000000	4269299.699426
445.000000	4299148.876602
446.000000	4329046.539731
447.000000	4358988.233462
448.000000	4388969.452295
449.000000	4418985.642478
450.000000	4449032.201951
451.000000	4479104.481731
452.000000	4509197.785705
453.000000	4539307.371150
454.000000	4569428.448177
455.000000	4599556.179605
456.000000	4629685.679904
457.000000	4659812.014110
458.000000	4689930.196440
459.000000	4720035.188026
460.000000	4750121.894867
461.000000	4780185.164884
462.000000	4810219.784744
463.000000	4840220.476260
464.000000	4870181.891779
465.000000	4900098.609955
466.000000	4929965.130411
467.000000	4959775.867592
468.000000	4989525.145015
469.000000	5019207.188248
470.000000	5048816.117300
471.000000	5078345.939120
472.000000	5107790.538733
473.000000	5137143.670591
474.000000	5166398.948696
475.000000	5195549.836938
476.000000	5224589.638144
477.000000	5253511.483337
478.000000	5282308.320129
479.000000	5310972.900846
480.000000	5339497.770017
481.000000	5367875.252153
482.000000	5396097.438057
483.000000	5424156.172278
484.000000	5452043.039045
485.000000	5479749.348820
486.000000	5507266.124524
487.000000	5534584.087694
488.000000	5561693.644500
489.000000	5588584.872394
490.000000	5615247.506074
491.000000	5641670.924646
492.000000	5667844.138282
493.000000	5693755.776100
494.000000	5719394.073774
495.000000	5744746.862472
496.000000	5769801.557864
497.000000	5794545.150691
498.000000	5818964.197597
499.000000	5843044.813169
500.000000	5866772.663780
501.000000	5890132.961395
502.000000	5913110.460283
503.000000	5935689.453921
504.000000	5957853.774376
505.000000	5979586.793039
506.000000	6000871.423516
507.000000	6021690.125983
508.000000	6042024.911772
509.000000	6061857.361378
510.000000	6081168.623724
511.000000	6099939.436262
512.000000	6118150.140139
513.000000	6135780.700137
514.000000	6152810.724783
515.000000	6169219.491753
516.000000	6184985.974414
517.000000	6200088.872803
518.000000	6214506.644963
519.000000	6228217.545382
520.000000	6241199.661803
521.000000	6253430.958198
522.000000	6264889.319610
523.000000	6275552.599669
524.000000	6285398.671226
525.000000	6294405.480049
526.000000	6302551.100059
527.000000	6309813.792749
528.000000	6316172.067276
529.000000	6321604.743658
530.000000	6326091.017811
531.000000	6329610.528258
532.000000	6332143.423618
533.000000	6333670.432594
534.000000	6334172.933710
535.000000	6333633.025394
536.000000	6332033.597679
537.000000	6329358.401731
538.000000	6325592.120148
539.000000	6320720.435613
540.000000	6314730.098123
541.000000	6307608.990664
542.000000	6299346.191763
543.000000	6289932.036050
544.000000	6279358.171451
545.000000	6267617.611863
546.000000	6254704.787005
547.000000	6240615.586995
548.000000	6225347.401929
549.000000	6208899.156546
550.000000	6191271.339301
551.000000	6172466.025498
552.000000	6152486.893840
553.000000	6131339.237581
554.000000	6109029.968050
555.000000	6085567.612303
556.000000	6060962.303880
557.000000	6035225.766526
558.000000	6008371.291430
559.000000	5980413.707876
560.000000	5951369.347188
561.000000	5921256.000427
562.000000	5890092.870099
563.000000	5857900.516164
564.000000	5824700.796103
565.000000	5790516.800621
566.000000	5755372.784119
567.000000	5719294.091331
568.000000	5682307.079966
569.000000	5644439.040086
570.000000	5605718.111124
571.000000	5566173.196124
572.000000	5525833.874913
573.000000	5484730.315542
574.000000	5442893.185643
575.000000	5400353.563463
576.000000	5357142.849296
577.000000	5313292.678180
578.000000	5268834.833482
579.000000	5223801.162808
580.000000	5178223.495803
581.000000	5132133.564905
582.000000	5085562.928498
583.000000	5038542.898015
584.000000	4991104.468009
585.000000	4943278.250081
586.000000	4895094.410926
587.000000	4846582.614246
588.000000	4797771.967199
589.000000	4748690.970666
590.000000	4699367.474519
591.000000	4649828.636649
592.000000	4600100.886643
593.000000	4550209.893496
594.000000	4500180.537733
595.000000	4450036.887189
596.000000	4399802.177616
597.000000	4349498.796435
598.000000	4299148.270927
599.000000	4248771.259339
600.000000	4198387.545604
601.000000	4148016.036553
602.000000	4097674.761593
603.000000	4047380.875572
604.000000	3997150.664138
605.000000	3946999.552946
606.000000	3896942.119980
607.000000	3846992.110370
608.000000	3797162.452497
609.000000	3747465.274581
610.000000	3697911.919929
611.000000	3648512.962910
612.000000	3599278.224854
613.000000	3550216.792764
614.000000	3501337.040279
615.000000	3452646.650210
616.000000	3404152.637330
617.000000	3355861.373291
618.000000	3307778.606795
619.000000	3259909.499063
620.000000	3212258.636206
621.000000	3164830.076484
622.000000	3117627.354315
623.000000	3070653.516731
624.000000	3023911.116736
625.000000	2977402.244997
626.000000	2931128.542200
627.000000	2885091.223374
628.000000	2839291.111585
629.000000	2793728.680944
630.000000	2748404.054996
631.000000	2703317.003744
632.000000	2658467.025088
633.000000	2613853.237598
634.000000	2569474.542674
635.000000	2525329.536413
636.000000	2481416.587129
637.000000	2437733.830904
638.000000	2394279.177054
639.000000	2351050.347600
640.000000	2308044.884916
641.000000	2265260.191799
642.000000	2222693.501790
643.000000	2180341.915683
644.000000	2138202.336246
645.000000	2096271.575695
646.000000	2054546.294923
647.000000	2013023.093899
648.000000	1971698.476201
649.000000	1930568.858058
650.000000	1889630.562343
651.000000	1848879.864049
652.000000	1808312.937074
653.000000	1767925.950302
654.000000	1727714.963059
655.000000	1687676.070212
656.000000	1647805.281107
657.000000	1608098.594655
658.000000	1568551.995296
659.000000	1529161.441827
660.000000	1489922.906629
661.000000	1450832.310931
662.000000	1411885.643490
663.000000	1373078.837329
664.000000	1334407.856460
665.000000	1295868.673992
666.000000	1257457.265315
667.000000	1219169.617913
668.000000	1181001.720553
669.000000	1142949.582126
670.000000	1105009.212127
671.000000	1067176.647036
672.000000	1029447.922726
673.000000	991819.123878
674.000000	954286.310580
675.000000	916845.636435
676.000000	879493.274240
677.000000	842225.495820
678.000000	805038.594643
679.000000	767928.803878
680.000000	730892.479871
681.000000	693925.771865
682.000000	657024.942804
683.000000	620186.148257
684.000000	583405.702952
685.000000	546679.903496
686.000000	510005.270870
687.000000	473378.352887
688.000000	436795.740651
689.000000	400253.966224
690.000000	363749.529851
691.000000	327278.932013
692.000000	290838.708441
693.000000	254425.473829
694.000000	218035.838000
695.000000	181666.151900
696.000000	145313.118126
697.000000	109121.053094
698.000000	72299.791941
699.000000	36531.208770
700.000000	0.000000
