# Profil de ElecX au temps 2.000999999999940e-11 
# simu : /Volumes/MERCURE/JOBS/4milan_5e19_Z10/GNU/ElecX@y-c.set
# col 0 : abscisse (um)
# col 1 : ElecX (V/m)
0.000000	0.000000
1.000000	5652.842125
2.000000	5971.601539
3.000000	8648.940470
4.000000	13124.933831
5.000000	16258.536378
6.000000	19481.446380
7.000000	22724.544273
8.000000	25971.948950
9.000000	29218.280035
10.000000	32463.791132
11.000000	35711.041166
12.000000	38958.258251
13.000000	42204.212799
14.000000	45450.233768
15.000000	48700.315802
16.000000	51943.828813
17.000000	55195.290644
18.000000	58439.673776
19.000000	61689.934323
20.000000	64938.057271
21.000000	68185.803489
22.000000	71436.008776
23.000000	74685.544420
24.000000	77934.247006
25.000000	81185.243962
26.000000	84436.388152
27.000000	87686.631365
28.000000	90937.996600
29.000000	94190.264769
30.000000	97443.294129
31.000000	100695.447329
32.000000	103948.649173
33.000000	107202.812419
34.000000	110457.480274
35.000000	113712.786585
36.000000	116967.309977
37.000000	120223.935406
38.000000	123480.877699
39.000000	126738.598453
40.000000	129996.216217
41.000000	133254.791953
42.000000	136514.474920
43.000000	139774.598037
44.000000	143035.698567
45.000000	146297.610753
46.000000	149559.347237
47.000000	152822.921418
48.000000	156087.182038
49.000000	159352.046600
50.000000	162618.245983
51.000000	165885.060472
52.000000	169152.183300
53.000000	172421.372330
54.000000	175690.935317
55.000000	178961.759215
56.000000	182233.606830
57.000000	185506.739057
58.000000	188780.397764
59.000000	192055.511703
60.000000	195332.022026
61.000000	198609.511042
62.000000	201888.342594
63.000000	205168.484521
64.000000	208449.947019
65.000000	211732.826063
66.000000	215016.674296
67.000000	218302.327990
68.000000	221589.397177
69.000000	224877.902426
70.000000	228168.164182
71.000000	231459.705000
72.000000	234753.214006
73.000000	238048.100566
74.000000	241345.046086
75.000000	244643.414305
76.000000	247943.573775
77.000000	251245.928052
78.000000	254549.911995
79.000000	257856.121375
80.000000	261164.121670
81.000000	264474.342597
82.000000	267786.492218
83.000000	271100.655669
84.000000	274417.269566
85.000000	277735.915074
86.000000	281056.487855
87.000000	284380.084243
88.000000	287705.913036
89.000000	291034.668407
90.000000	294365.887819
91.000000	297699.900491
92.000000	301036.634783
93.000000	304376.175643
94.000000	307718.680276
95.000000	311064.161129
96.000000	314412.689139
97.000000	317764.400354
98.000000	321119.343126
99.000000	324477.557169
100.000000	327839.223019
101.000000	331204.394187
102.000000	334573.101777
103.000000	337945.492139
104.000000	341321.670649
105.000000	344701.754811
106.000000	348085.734461
107.000000	351473.838869
108.000000	354866.116325
109.000000	358262.693046
110.000000	361663.629743
111.000000	365069.127355
112.000000	368479.249902
113.000000	371894.088955
114.000000	375313.806596
115.000000	378738.540874
116.000000	382168.384246
117.000000	385603.438340
118.000000	389043.946143
119.000000	392489.953653
120.000000	395941.596857
121.000000	399399.079829
122.000000	402862.512117
123.000000	406331.981766
124.000000	409807.749616
125.000000	413289.903450
126.000000	416778.588624
127.000000	420274.055554
128.000000	423776.383586
129.000000	427285.794353
130.000000	430802.301717
131.000000	434326.348671
132.000000	437857.861207
133.000000	441397.266686
134.000000	444944.479382
135.000000	448499.965668
136.000000	452063.687929
137.000000	455635.970143
138.000000	459216.848273
139.000000	462806.745518
140.000000	466405.787003
141.000000	470014.353780
142.000000	473630.466618
143.000000	477258.969922
144.000000	480897.500876
145.000000	484545.418163
146.000000	488203.880860
147.000000	491873.098380
148.000000	495552.656787
149.000000	499244.028316
150.000000	502946.658766
151.000000	506660.553069
152.000000	510386.841549
153.000000	514124.902699
154.000000	517875.743184
155.000000	521638.839511
156.000000	525415.390240
157.000000	529204.763251
158.000000	533007.752499
159.000000	536824.840758
160.000000	540655.368636
161.000000	544500.791670
162.000000	548360.816845
163.000000	552235.410606
164.000000	556125.649088
165.000000	560031.405640
166.000000	563952.804714
167.000000	567890.542300
168.000000	571844.760566
169.000000	575815.911769
170.000000	579803.921868
171.000000	583809.652003
172.000000	587833.145094
173.000000	591874.806688
174.000000	595934.990024
175.000000	600013.851030
176.000000	604112.074308
177.000000	608229.818134
178.000000	612367.475575
179.000000	616525.422465
180.000000	620704.050831
181.000000	624903.574615
182.000000	629124.668113
183.000000	633367.484724
184.000000	637632.489854
185.000000	641920.077506
186.000000	646230.634577
187.000000	650564.563544
188.000000	654922.283848
189.000000	659304.197891
190.000000	663710.693032
191.000000	668142.231832
192.000000	672599.231233
193.000000	677082.130337
194.000000	681591.365023
195.000000	686127.371648
196.000000	690690.597946
197.000000	695281.512575
198.000000	699900.551347
199.000000	704548.180879
200.000000	709224.880944
201.000000	713931.141676
202.000000	718667.421816
203.000000	723434.214206
204.000000	728232.018944
205.000000	733061.335047
206.000000	737922.640563
207.000000	742816.510571
208.000000	747743.373752
209.000000	752703.847574
210.000000	757698.446403
211.000000	762727.609551
212.000000	767792.028260
213.000000	772892.153375
214.000000	778028.565408
215.000000	783201.903667
216.000000	788412.600760
217.000000	793661.413551
218.000000	798948.775501
219.000000	804275.357665
220.000000	809641.830716
221.000000	815048.613156
222.000000	820496.627383
223.000000	825986.255064
224.000000	831518.201887
225.000000	837093.190890
226.000000	842711.725273
227.000000	848374.630139
228.000000	854082.559886
229.000000	859836.136308
230.000000	865636.053291
231.000000	871483.132548
232.000000	877378.024107
233.000000	883321.400985
234.000000	889314.096903
235.000000	895356.823920
236.000000	901450.368136
237.000000	907595.473554
238.000000	913792.925311
239.000000	920043.566977
240.000000	926348.175226
241.000000	932707.592511
242.000000	939122.646541
243.000000	945594.160161
244.000000	952123.053656
245.000000	958710.172966
246.000000	965356.414142
247.000000	972062.675223
248.000000	978829.892420
249.000000	985658.963167
250.000000	992550.897348
251.000000	999506.599540
252.000000	1006527.089482
253.000000	1013613.347583
254.000000	1020766.381001
255.000000	1027987.228181
256.000000	1035276.929747
257.000000	1042636.539537
258.000000	1050067.149520
259.000000	1057569.845769
260.000000	1065145.736676
261.000000	1072795.962636
262.000000	1080521.658022
263.000000	1088324.037721
264.000000	1096204.259971
265.000000	1104163.520060
266.000000	1112203.055168
267.000000	1120324.123593
268.000000	1128527.991999
269.000000	1136815.939489
270.000000	1145189.275740
271.000000	1153649.330792
272.000000	1162197.456554
273.000000	1170835.026231
274.000000	1179563.435452
275.000000	1188384.102779
276.000000	1197298.469146
277.000000	1206307.999119
278.000000	1215414.180424
279.000000	1224618.525071
280.000000	1233922.569197
281.000000	1243327.873327
282.000000	1252836.023327
283.000000	1262448.629983
284.000000	1272167.329755
285.000000	1281993.785261
286.000000	1291929.685200
287.000000	1301976.745120
288.000000	1312136.707396
289.000000	1322411.341703
290.000000	1332802.445630
291.000000	1343311.844523
292.000000	1353941.392173
293.000000	1364692.970993
294.000000	1375568.492611
295.000000	1386569.897386
296.000000	1397699.156167
297.000000	1408958.269124
298.000000	1420349.267070
299.000000	1431874.210933
300.000000	1443535.193303
301.000000	1455334.337032
302.000000	1467273.797146
303.000000	1479355.760036
304.000000	1491582.444417
305.000000	1503956.100759
306.000000	1516479.012697
307.000000	1529153.496106
308.000000	1541981.900206
309.000000	1554966.607144
310.000000	1568110.032797
311.000000	1581414.626265
312.000000	1594882.870672
313.000000	1608517.282981
314.000000	1622320.414219
315.000000	1636294.849640
316.000000	1650443.208715
317.000000	1664768.145368
318.000000	1679272.347714
319.000000	1693958.538625
320.000000	1708829.475093
321.000000	1723887.948877
322.000000	1739136.785918
323.000000	1754578.846591
324.000000	1770217.025052
325.000000	1786054.250675
326.000000	1802093.485172
327.000000	1818337.725035
328.000000	1834790.000026
329.000000	1851453.372772
330.000000	1868330.939039
331.000000	1885425.826966
332.000000	1902741.196876
333.000000	1920280.240380
334.000000	1938046.180598
335.000000	1956042.271059
336.000000	1974271.795093
337.000000	1992738.065603
338.000000	2011444.423760
339.000000	2030394.238848
340.000000	2049590.906784
341.000000	2069037.849716
342.000000	2088738.514874
343.000000	2108696.373479
344.000000	2128914.919609
345.000000	2149397.669157
346.000000	2170148.158679
347.000000	2191169.943398
348.000000	2212466.596776
349.000000	2234041.708303
350.000000	2255898.881837
351.000000	2278041.734564
352.000000	2300473.894747
353.000000	2323198.999793
354.000000	2346220.694471
355.000000	2369542.629177
356.000000	2393168.456906
357.000000	2417101.831848
358.000000	2441346.406486
359.000000	2465905.829436
360.000000	2490783.742247
361.000000	2515983.777659
362.000000	2541509.555848
363.000000	2567364.681877
364.000000	2593552.742463
365.000000	2620077.303061
366.000000	2646941.904097
367.000000	2674150.057789
368.000000	2701705.244402
369.000000	2729610.908776
370.000000	2757870.455874
371.000000	2786487.247588
372.000000	2815464.597862
373.000000	2844805.768803
374.000000	2874513.966281
375.000000	2904592.335158
376.000000	2935043.954487
377.000000	2965871.833437
378.000000	2997078.905271
379.000000	3028668.022707
380.000000	3060641.953112
381.000000	3093003.372010
382.000000	3125754.858873
383.000000	3158898.890305
384.000000	3192437.834777
385.000000	3226373.946811
386.000000	3260709.360599
387.000000	3295446.084063
388.000000	3330585.992344
389.000000	3366130.821714
390.000000	3402082.162599
391.000000	3438441.453438
392.000000	3475209.973631
393.000000	3512388.836874
394.000000	3549978.984122
395.000000	3587981.176792
396.000000	3626395.989776
397.000000	3665223.803898
398.000000	3704464.799283
399.000000	3744118.947991
400.000000	3784186.006717
401.000000	3824665.509528
402.000000	3865556.760696
403.000000	3906858.827764
404.000000	3948570.533472
405.000000	3990690.449745
406.000000	4033216.889379
407.000000	4076147.899819
408.000000	4119481.255672
409.000000	4163214.451979
410.000000	4207344.697332
411.000000	4251868.907084
412.000000	4296783.696858
413.000000	4342085.376256
414.000000	4387769.942071
415.000000	4433833.072901
416.000000	4480270.122662
417.000000	4527076.115033
418.000000	4574245.738330
419.000000	4621773.339700
420.000000	4669652.920441
421.000000	4717878.131200
422.000000	4766442.267468
423.000000	4815338.265430
424.000000	4864558.697998
425.000000	4914095.771101
426.000000	4963941.320682
427.000000	5014086.809296
428.000000	5064523.323569
429.000000	5115241.571966
430.000000	5166231.882398
431.000000	5217484.200643
432.000000	5268988.088856
433.000000	5320732.724096
434.000000	5372706.898005
435.000000	5424899.015389
436.000000	5477297.094573
437.000000	5529888.766593
438.000000	5582661.275841
439.000000	5635601.479825
440.000000	5688695.849848
441.000000	5741930.471431
442.000000	5795291.045213
443.000000	5848762.887116
444.000000	5902330.930016
445.000000	5955979.723301
446.000000	6009693.434840
447.000000	6063455.850660
448.000000	6117250.376002
449.000000	6171060.035443
450.000000	6224867.473233
451.000000	6278654.952727
452.000000	6332404.356675
453.000000	6386097.185927
454.000000	6439714.558552
455.000000	6493237.208183
456.000000	6546645.482196
457.000000	6599919.339403
458.000000	6653038.346241
459.000000	6705981.674651
460.000000	6758728.096920
461.000000	6811255.981460
462.000000	6863543.287925
463.000000	6915567.561048
464.000000	6967305.924960
465.000000	7018735.075893
466.000000	7069831.275684
467.000000	7120570.343462
468.000000	7170927.648139
469.000000	7220878.100125
470.000000	7270396.142686
471.000000	7319455.743662
472.000000	7368030.386728
473.000000	7416093.063061
474.000000	7463616.263563
475.000000	7510571.970629
476.000000	7556931.651887
477.000000	7602666.253277
478.000000	7647746.194565
479.000000	7692141.364904
480.000000	7735821.120761
481.000000	7778754.285004
482.000000	7820909.148149
483.000000	7862253.472017
484.000000	7902754.495787
485.000000	7942378.944631
486.000000	7981093.041932
487.000000	8018862.524461
488.000000	8055652.661756
489.000000	8091428.278680
490.000000	8126153.783330
491.000000	8159793.198716
492.000000	8192310.199351
493.000000	8223668.153405
494.000000	8253830.169910
495.000000	8282759.151294
496.000000	8310417.851201
497.000000	8336768.938460
498.000000	8361775.075437
499.000000	8385398.980039
500.000000	8407603.517883
501.000000	8428351.788865
502.000000	8447607.222202
503.000000	8465333.675730
504.000000	8481495.543334
505.000000	8496057.865545
506.000000	8508986.446644
507.000000	8520247.976003
508.000000	8529810.153439
509.000000	8537641.818278
510.000000	8543713.082103
511.000000	8547995.462674
512.000000	8550462.020220
513.000000	8551087.494427
514.000000	8549848.440559
515.000000	8546723.365684
516.000000	8541692.861204
517.000000	8534739.733611
518.000000	8525849.130152
519.000000	8515008.659089
520.000000	8502208.504157
521.000000	8487441.530453
522.000000	8470703.382931
523.000000	8451992.572385
524.000000	8431310.555777
525.000000	8408661.801016
526.000000	8384053.836260
527.000000	8357497.293283
528.000000	8329005.931739
529.000000	8298596.648875
530.000000	8266289.477291
531.000000	8232107.562557
532.000000	8196077.129768
533.000000	8158227.431219
534.000000	8118590.680361
535.000000	8077201.969722
536.000000	8034099.174003
537.000000	7989322.839724
538.000000	7942916.060714
539.000000	7894924.339361
540.000000	7845395.441666
541.000000	7794379.232853
542.000000	7741927.513529
543.000000	7688093.839218
544.000000	7632933.338230
545.000000	7576502.523312
546.000000	7518859.096938
547.000000	7460061.756773
548.000000	7400169.998941
549.000000	7339243.921560
550.000000	7277344.029434
551.000000	7214531.042662
552.000000	7150865.708879
553.000000	7086408.620593
554.000000	7021220.039179
555.000000	6955359.726514
556.000000	6888886.784013
557.000000	6821859.501252
558.000000	6754335.213911
559.000000	6686370.171734
560.000000	6618019.417187
561.000000	6549336.674246
562.000000	6480374.249116
563.000000	6411182.940775
564.000000	6341811.963361
565.000000	6272308.878720
566.000000	6202719.540150
567.000000	6133088.045860
568.000000	6063456.702915
569.000000	5993866.000449
570.000000	5924354.591947
571.000000	5854959.286592
572.000000	5785715.047997
573.000000	5716655.001173
574.000000	5647810.445688
575.000000	5579210.876270
576.000000	5510884.007977
577.000000	5442855.807486
578.000000	5375150.528749
579.000000	5307790.752533
580.000000	5240797.430070
581.000000	5174189.929044
582.000000	5107986.082714
583.000000	5042202.241186
584.000000	4976853.323769
585.000000	4911952.873695
586.000000	4847513.112895
587.000000	4783544.998024
588.000000	4720058.276536
589.000000	4657061.542475
590.000000	4594562.291942
591.000000	4532566.976923
592.000000	4471081.058185
593.000000	4410109.056847
594.000000	4349654.603720
595.000000	4289720.488602
596.000000	4230308.708126
597.000000	4171420.513899
598.000000	4113056.460139
599.000000	4055216.450895
600.000000	3997899.786227
601.000000	3941105.205961
602.000000	3884830.930934
603.000000	3829074.700739
604.000000	3773833.807400
605.000000	3719105.126410
606.000000	3664885.145066
607.000000	3611169.988787
608.000000	3557955.447919
609.000000	3505237.004068
610.000000	3453009.857616
611.000000	3401268.955651
612.000000	3350009.023207
613.000000	3299224.573932
614.000000	3248909.973773
615.000000	3199059.386259
616.000000	3149666.880700
617.000000	3100726.362689
618.000000	3052231.628327
619.000000	3004176.380816
620.000000	2956554.214457
621.000000	2909358.663378
622.000000	2862583.185510
623.000000	2816221.198689
624.000000	2770266.066079
625.000000	2724711.122168
626.000000	2679549.679142
627.000000	2634775.034011
628.000000	2590380.502661
629.000000	2546359.376685
630.000000	2502704.996964
631.000000	2459410.643696
632.000000	2416469.636692
633.000000	2373875.286280
634.000000	2331620.942623
635.000000	2289699.989287
636.000000	2248105.838776
637.000000	2206831.945863
638.000000	2165871.808505
639.000000	2125218.989514
640.000000	2084867.068087
641.000000	2044809.649928
642.000000	2005040.306046
643.000000	1965552.762741
644.000000	1926340.731126
645.000000	1887398.058720
646.000000	1848718.557840
647.000000	1810296.131401
648.000000	1772124.726722
649.000000	1734198.343199
650.000000	1696511.023561
651.000000	1659056.860287
652.000000	1621830.004649
653.000000	1584824.669328
654.000000	1548035.108167
655.000000	1511455.618256
656.000000	1475080.572093
657.000000	1438904.361375
658.000000	1402921.450198
659.000000	1367126.345506
660.000000	1331513.623577
661.000000	1296077.905739
662.000000	1260813.876585
663.000000	1225716.273139
664.000000	1190779.867701
665.000000	1155999.479856
666.000000	1121369.989666
667.000000	1086886.336120
668.000000	1052543.426331
669.000000	1018336.213362
670.000000	984259.727911
671.000000	950309.068654
672.000000	916479.325994
673.000000	882765.720456
674.000000	849163.449800
675.000000	815667.797118
676.000000	782274.134798
677.000000	748977.800448
678.000000	715774.244473
679.000000	682658.929733
680.000000	649627.332250
681.000000	616674.940039
682.000000	583797.246970
683.000000	550989.800762
684.000000	518248.240809
685.000000	485568.260257
686.000000	452945.682352
687.000000	420376.320630
688.000000	387856.055292
689.000000	355380.776986
690.000000	322946.401473
691.000000	290548.915482
692.000000	258184.399926
693.000000	225848.999939
694.000000	193538.935727
695.000000	161250.450133
696.000000	128981.115222
697.000000	96862.150100
698.000000	64218.966670
699.000000	32365.848710
700.000000	0.000000
