# Profil de ElecSpitzerX au temps 2.000999999999940e-11 
# simu : /Volumes/MERCURE/JOBS/4milan_5e19_Z10/GNU/ElecSpitzerX@y-c.set
# col 0 : abscisse (um)
# col 1 : ElecSpitzerX (V/m)
0.000000	-0.000000
1.000000	4575.937235
2.000000	3541.649400
3.000000	4992.444797
4.000000	8330.987112
5.000000	10260.838690
6.000000	12284.505257
7.000000	14329.937774
8.000000	16380.657741
9.000000	18431.145570
10.000000	20481.795083
11.000000	22535.421800
12.000000	24590.282758
13.000000	26645.205567
14.000000	28701.711249
15.000000	30764.114312
16.000000	32821.348333
17.000000	34888.791179
18.000000	36950.765685
19.000000	39021.019983
20.000000	41091.246815
21.000000	43163.407797
22.000000	45240.600748
23.000000	47319.648525
24.000000	49400.500545
25.000000	51486.566781
26.000000	53575.703563
27.000000	55666.921428
28.000000	57762.459035
29.000000	59862.200250
30.000000	61966.105777
31.000000	64072.564027
32.000000	66183.718023
33.000000	68299.589235
34.000000	70419.810928
35.000000	72544.635330
36.000000	74672.680341
37.000000	76807.096326
38.000000	78946.118073
39.000000	81090.339859
40.000000	83238.946554
41.000000	85393.167881
42.000000	87553.271986
43.000000	89718.668325
44.000000	91890.031675
45.000000	94067.298467
46.000000	96249.539213
47.000000	98438.982466
48.000000	100634.529465
49.000000	102836.200215
50.000000	105044.873056
51.000000	107259.898108
52.000000	109481.061015
53.000000	111710.323409
54.000000	113946.008953
55.000000	116189.159551
56.000000	118439.633957
57.000000	120697.811648
58.000000	122962.999701
59.000000	125236.286481
60.000000	127517.713309
61.000000	129806.947825
62.000000	132104.475548
63.000000	134410.371565
64.000000	136724.749136
65.000000	139047.808473
66.000000	141379.182044
67.000000	143719.837699
68.000000	146069.515108
69.000000	148428.316316
70.000000	150796.681149
71.000000	153174.204794
72.000000	155561.720136
73.000000	157958.702821
74.000000	160365.975176
75.000000	162782.963848
76.000000	165210.162647
77.000000	167648.095055
78.000000	170096.265039
79.000000	172555.403902
80.000000	175025.149513
81.000000	177506.063964
82.000000	179997.772668
83.000000	182500.322835
84.000000	185014.860849
85.000000	187540.273096
86.000000	190076.515984
87.000000	192626.157878
88.000000	195187.721182
89.000000	197761.985462
90.000000	200348.569479
91.000000	202947.905226
92.000000	205560.009955
93.000000	208185.066534
94.000000	210823.336348
95.000000	213474.929320
96.000000	216140.014187
97.000000	218818.827826
98.000000	221511.515802
99.000000	224218.212918
100.000000	226939.203729
101.000000	229674.637334
102.000000	232424.638835
103.000000	235189.456305
104.000000	237969.293647
105.000000	240764.367993
106.000000	243574.760328
107.000000	246400.806015
108.000000	249242.647734
109.000000	252100.510682
110.000000	254974.550520
111.000000	257865.071031
112.000000	260772.230642
113.000000	263696.216699
114.000000	266637.291130
115.000000	269595.689852
116.000000	272571.600380
117.000000	275565.219508
118.000000	278576.893442
119.000000	281606.759627
120.000000	284655.050065
121.000000	287722.068524
122.000000	290808.018585
123.000000	293913.080164
124.000000	297037.617068
125.000000	300181.807801
126.000000	303345.892288
127.000000	306530.221235
128.000000	309734.963702
129.000000	312960.438823
130.000000	316206.746251
131.000000	319474.436748
132.000000	322763.517129
133.000000	326074.521752
134.000000	329407.442323
135.000000	332762.854141
136.000000	336140.798725
137.000000	339541.699379
138.000000	342965.674552
139.000000	346413.251237
140.000000	349884.641136
141.000000	353380.325453
142.000000	356898.286370
143.000000	360443.735888
144.000000	364014.249028
145.000000	367609.217677
146.000000	371229.942812
147.000000	374876.720953
148.000000	378549.187047
149.000000	382248.973887
150.000000	385975.566656
151.000000	389729.042111
152.000000	393510.668811
153.000000	397319.858081
154.000000	401157.746502
155.000000	405023.847282
156.000000	408919.499075
157.000000	412844.098774
158.000000	416798.554050
159.000000	420783.442952
160.000000	424798.130100
161.000000	428844.223800
162.000000	432921.476679
163.000000	437029.914976
164.000000	441170.743042
165.000000	445343.887788
166.000000	449549.541475
167.000000	453788.503157
168.000000	458060.983333
169.000000	462367.521003
170.000000	466708.095417
171.000000	471083.679203
172.000000	475494.375165
173.000000	479940.670709
174.000000	484422.997310
175.000000	488941.576217
176.000000	493497.190758
177.000000	498090.064366
178.000000	502720.669814
179.000000	507389.461465
180.000000	512096.910960
181.000000	516843.300231
182.000000	521629.401603
183.000000	526455.432984
184.000000	531321.944566
185.000000	536229.410943
186.000000	541178.299499
187.000000	546169.094722
188.000000	551202.299712
189.000000	556278.400090
190.000000	561397.866173
191.000000	566561.249431
192.000000	571769.053625
193.000000	577021.807348
194.000000	582320.036983
195.000000	587664.270792
196.000000	593055.050709
197.000000	598492.942623
198.000000	603978.479098
199.000000	609512.227431
200.000000	615094.771005
201.000000	620726.706343
202.000000	626408.598709
203.000000	632141.052123
204.000000	637924.680926
205.000000	643760.100959
206.000000	649647.908518
207.000000	655588.806662
208.000000	661583.345027
209.000000	667632.278549
210.000000	673736.255483
211.000000	679895.847231
212.000000	686111.898812
213.000000	692385.001932
214.000000	698715.891256
215.000000	705105.368878
216.000000	711554.019894
217.000000	718062.781631
218.000000	724632.249670
219.000000	731263.279221
220.000000	737956.730607
221.000000	744713.198816
222.000000	751533.825182
223.000000	758419.176596
224.000000	765370.173282
225.000000	772387.760525
226.000000	779472.653779
227.000000	786625.920703
228.000000	793848.452473
229.000000	801141.111889
230.000000	808504.846129
231.000000	815940.747197
232.000000	823449.729905
233.000000	831032.741110
234.000000	838690.908339
235.000000	846425.236196
236.000000	854236.817024
237.000000	862126.706006
238.000000	870096.011017
239.000000	878145.911490
240.000000	886277.523593
241.000000	894492.043143
242.000000	902790.659256
243.000000	911174.564901
244.000000	919645.067619
245.000000	928203.404312
246.000000	936850.875624
247.000000	945588.794221
248.000000	954418.523960
249.000000	963341.397016
250.000000	972358.877347
251.000000	981472.325675
252.000000	990683.237662
253.000000	999993.077330
254.000000	1009403.348494
255.000000	1018915.599865
256.000000	1028531.393693
257.000000	1038252.317910
258.000000	1048080.013136
259.000000	1058016.125275
260.000000	1068062.336115
261.000000	1078220.374039
262.000000	1088491.972896
263.000000	1098878.965982
264.000000	1109383.137582
265.000000	1120006.324448
266.000000	1130750.421320
267.000000	1141617.358595
268.000000	1152609.088587
269.000000	1163727.590052
270.000000	1174974.887902
271.000000	1186353.042462
272.000000	1197864.151060
273.000000	1209510.347594
274.000000	1221293.803893
275.000000	1233216.730363
276.000000	1245281.375499
277.000000	1257490.027400
278.000000	1269845.013345
279.000000	1282348.701105
280.000000	1295003.498960
281.000000	1307811.856014
282.000000	1320776.263403
283.000000	1333899.253840
284.000000	1347183.402666
285.000000	1360631.328387
286.000000	1374245.692681
287.000000	1388029.201359
288.000000	1401984.604391
289.000000	1416114.696495
290.000000	1430422.317929
291.000000	1444910.354263
292.000000	1459581.737356
293.000000	1474439.445404
294.000000	1489486.503828
295.000000	1504725.984576
296.000000	1520161.008240
297.000000	1535794.742662
298.000000	1551630.404503
299.000000	1567671.258545
300.000000	1583920.619414
301.000000	1600381.850038
302.000000	1617058.363636
303.000000	1633953.622845
304.000000	1651071.140634
305.000000	1668414.479618
306.000000	1685987.253501
307.000000	1703793.125909
308.000000	1721835.811516
309.000000	1740119.075364
310.000000	1758646.733557
311.000000	1777422.652600
312.000000	1796450.749896
313.000000	1815734.993416
314.000000	1835279.401652
315.000000	1855088.043379
316.000000	1875165.037482
317.000000	1895514.552749
318.000000	1916140.807180
319.000000	1937048.068252
320.000000	1958240.651718
321.000000	1979722.921837
322.000000	2001499.290193
323.000000	2023574.215439
324.000000	2045952.201909
325.000000	2068637.800597
326.000000	2091635.605295
327.000000	2114950.254500
328.000000	2138586.429043
329.000000	2162548.850721
330.000000	2186842.281792
331.000000	2211471.523138
332.000000	2236441.413066
333.000000	2261756.825336
334.000000	2287422.668204
335.000000	2313443.882126
336.000000	2339825.437752
337.000000	2366572.334518
338.000000	2393689.597711
339.000000	2421182.276880
340.000000	2449055.442794
341.000000	2477314.185304
342.000000	2505963.610426
343.000000	2535008.837523
344.000000	2564454.996003
345.000000	2594307.222505
346.000000	2624570.657466
347.000000	2655250.440884
348.000000	2686351.709737
349.000000	2717879.593176
350.000000	2749839.208388
351.000000	2782235.656979
352.000000	2815074.019915
353.000000	2848359.352774
354.000000	2882096.680938
355.000000	2916290.994854
356.000000	2950947.243709
357.000000	2986070.330750
358.000000	3021665.106929
359.000000	3057736.365120
360.000000	3094288.833229
361.000000	3131327.168648
362.000000	3168855.950507
363.000000	3206879.672950
364.000000	3245402.737766
365.000000	3284429.447053
366.000000	3323963.994966
367.000000	3364010.459813
368.000000	3404572.795625
369.000000	3445654.823760
370.000000	3487260.223293
371.000000	3529392.522753
372.000000	3572055.089889
373.000000	3615251.122311
374.000000	3658983.637515
375.000000	3703255.462385
376.000000	3748069.222556
377.000000	3793427.332458
378.000000	3839331.983093
379.000000	3885785.131197
380.000000	3932788.488328
381.000000	3980343.507659
382.000000	4028451.373547
383.000000	4077112.987909
384.000000	4126328.958332
385.000000	4176099.585568
386.000000	4226424.850191
387.000000	4277304.399826
388.000000	4328737.535690
389.000000	4380723.199565
390.000000	4433259.959664
391.000000	4486345.997638
392.000000	4539979.094365
393.000000	4594156.616380
394.000000	4648875.501694
395.000000	4704132.246229
396.000000	4759922.889839
397.000000	4816243.001966
398.000000	4873087.668329
399.000000	4930451.476933
400.000000	4988328.504329
401.000000	5046712.302000
402.000000	5105595.883090
403.000000	5164971.709571
404.000000	5224831.678361
405.000000	5285167.109961
406.000000	5345968.734805
407.000000	5407226.682271
408.000000	5468930.468514
409.000000	5531068.985494
410.000000	5593630.490310
411.000000	5656602.594784
412.000000	5719972.256014
413.000000	5783725.767517
414.000000	5847848.750106
415.000000	5912326.145128
416.000000	5977142.206645
417.000000	6042280.495474
418.000000	6107723.873966
419.000000	6173454.500903
420.000000	6239453.827954
421.000000	6305702.596890
422.000000	6372180.837433
423.000000	6438867.866509
424.000000	6505742.288126
425.000000	6572781.994244
426.000000	6639964.167257
427.000000	6707265.282585
428.000000	6774661.113041
429.000000	6842126.734219
430.000000	6909636.530428
431.000000	6977164.202296
432.000000	7044682.775122
433.000000	7112164.608081
434.000000	7179581.405332
435.000000	7246904.226680
436.000000	7314103.500862
437.000000	7381149.038325
438.000000	7448010.046073
439.000000	7514655.142535
440.000000	7581052.373619
441.000000	7647169.229630
442.000000	7712972.662761
443.000000	7778429.104739
444.000000	7843504.486363
445.000000	7908164.255507
446.000000	7972373.397828
447.000000	8036096.455800
448.000000	8099297.549337
449.000000	8161940.395910
450.000000	8223988.331116
451.000000	8285404.328671
452.000000	8346151.021374
453.000000	8406190.720798
454.000000	8465485.437364
455.000000	8523996.900018
456.000000	8581686.575545
457.000000	8638515.687645
458.000000	8694445.234506
459.000000	8749436.008101
460.000000	8803448.610422
461.000000	8856443.470779
462.000000	8908380.862304
463.000000	8959220.917381
464.000000	9008923.643483
465.000000	9057448.937665
466.000000	9104756.601590
467.000000	9150806.355500
468.000000	9195557.852532
469.000000	9238970.693149
470.000000	9281004.439076
471.000000	9321618.628372
472.000000	9360772.790284
473.000000	9398426.461250
474.000000	9434539.202053
475.000000	9469070.615377
476.000000	9501980.366044
477.000000	9533228.201813
478.000000	9562773.977400
479.000000	9590577.679977
480.000000	9616599.458131
481.000000	9640799.653373
482.000000	9663138.835337
483.000000	9683577.840817
484.000000	9702077.816820
485.000000	9718600.267836
486.000000	9733107.108319
487.000000	9745560.719894
488.000000	9755924.014311
489.000000	9764160.501395
490.000000	9770234.363680
491.000000	9774110.536553
492.000000	9775754.794588
493.000000	9775133.844575
494.000000	9772215.424751
495.000000	9766968.410101
496.000000	9759362.923706
497.000000	9749370.454187
498.000000	9736963.985551
499.000000	9722118.116091
500.000000	9704809.199597
501.000000	9685015.483185
502.000000	9662717.250842
503.000000	9637896.969372
504.000000	9610539.438654
505.000000	9580631.942110
506.000000	9548164.399112
507.000000	9513129.516913
508.000000	9475522.941052
509.000000	9435343.403418
510.000000	9392592.866838
511.000000	9347276.664008
512.000000	9299403.630267
513.000000	9248986.228599
514.000000	9196040.664706
515.000000	9140586.992250
516.000000	9082649.204702
517.000000	9022255.314537
518.000000	8959437.416908
519.000000	8894231.736922
520.000000	8826678.659963
521.000000	8756822.742609
522.000000	8684712.705022
523.000000	8610401.400948
524.000000	8533945.769928
525.000000	8455406.765712
526.000000	8374849.260996
527.000000	8292341.934649
528.000000	8207957.134165
529.000000	8121770.716997
530.000000	8033861.872653
531.000000	7944312.922043
532.000000	7853209.100591
533.000000	7760638.321605
534.000000	7666690.924265
535.000000	7571459.406609
536.000000	7475038.145516
537.000000	7377523.106113
538.000000	7279011.541950
539.000000	7179601.687568
540.000000	7079392.449447
541.000000	6978483.090036
542.000000	6876972.917011
543.000000	6774960.970363
544.000000	6672545.716698
545.000000	6569824.749777
546.000000	6466894.498439
547.000000	6363849.946663
548.000000	6260784.365390
549.000000	6157789.058456
550.000000	6054953.123638
551.000000	5952363.230951
552.000000	5850103.418443
553.000000	5748254.906427
554.000000	5646895.931100
555.000000	5546101.597951
556.000000	5445943.754668
557.000000	5346490.884379
558.000000	5247808.018349
559.000000	5149956.668423
560.000000	5052994.778322
561.000000	4956976.693150
562.000000	4861953.147031
563.000000	4767971.266950
564.000000	4675074.592858
565.000000	4583303.112160
566.000000	4492693.308468
567.000000	4403278.222324
568.000000	4315087.523938
569.000000	4228147.595658
570.000000	4142481.623973
571.000000	4058109.699357
572.000000	3975048.922706
573.000000	3893313.517891
574.000000	3812914.948371
575.000000	3733862.038298
576.000000	3656161.095334
577.000000	3579816.035986
578.000000	3504828.511574
579.000000	3431198.034419
580.000000	3358922.103641
581.000000	3287996.329613
582.000000	3218414.556945
583.000000	3150168.985364
584.000000	3083250.287742
585.000000	3017647.725789
586.000000	2953349.262041
587.000000	2890341.668783
588.000000	2828610.632809
589.000000	2768140.855741
590.000000	2708916.149746
591.000000	2650919.527485
592.000000	2594133.287234
593.000000	2538539.092724
594.000000	2484118.048517
595.000000	2430850.772320
596.000000	2378717.464834
597.000000	2327697.978109
598.000000	2277771.881868
599.000000	2228918.527621
600.000000	2181117.108453
601.000000	2134346.713018
602.000000	2088586.373000
603.000000	2043815.103112
604.000000	2000011.934325
605.000000	1957155.942158
606.000000	1915226.271924
607.000000	1874202.162341
608.000000	1834062.971025
609.000000	1794788.200932
610.000000	1756357.529675
611.000000	1718750.838940
612.000000	1681948.244363
613.000000	1645930.110160
614.000000	1610677.087274
615.000000	1576170.081857
616.000000	1542390.307880
617.000000	1509319.243882
618.000000	1476938.657203
619.000000	1445230.612674
620.000000	1414177.465205
621.000000	1383761.887999
622.000000	1353966.863096
623.000000	1324775.696917
624.000000	1296172.006744
625.000000	1268139.731086
626.000000	1240663.134293
627.000000	1213726.813809
628.000000	1187315.716954
629.000000	1161415.101413
630.000000	1136010.550130
631.000000	1111087.889842
632.000000	1086633.248131
633.000000	1062633.045743
634.000000	1039074.036482
635.000000	1015943.291312
636.000000	993228.173862
637.000000	970916.345468
638.000000	948995.778288
639.000000	927454.753056
640.000000	906281.777505
641.000000	885465.557638
642.000000	864995.003821
643.000000	844859.407472
644.000000	825048.338067
645.000000	805551.652004
646.000000	786359.358822
647.000000	767461.733205
648.000000	748849.309069
649.000000	730512.840317
650.000000	712443.272662
651.000000	694631.779463
652.000000	677069.776008
653.000000	659748.883802
654.000000	642660.904159
655.000000	625797.837825
656.000000	609151.899905
657.000000	592715.462569
658.000000	576481.088839
659.000000	560441.535161
660.000000	544589.753449
661.000000	528918.858547
662.000000	513422.144602
663.000000	498093.058726
664.000000	482925.175566
665.000000	467912.219732
666.000000	453048.076335
667.000000	438326.802447
668.000000	423742.472304
669.000000	409289.258932
670.000000	394961.557292
671.000000	380753.914941
672.000000	366660.918462
673.000000	352677.350734
674.000000	338798.082486
675.000000	325018.128725
676.000000	311332.658426
677.000000	297736.859952
678.000000	284226.077519
679.000000	270795.706238
680.000000	257441.156057
681.000000	244157.874135
682.000000	230941.354021
683.000000	217787.229089
684.000000	204691.311314
685.000000	191649.552338
686.000000	178658.057721
687.000000	165712.951115
688.000000	152810.388483
689.000000	139946.546255
690.000000	127117.643712
691.000000	114320.038299
692.000000	101550.282777
693.000000	88804.994644
694.000000	76080.834969
695.000000	63374.649253
696.000000	50684.429625
697.000000	38089.353710
698.000000	25178.935311
699.000000	12734.488137
700.000000	-0.000000
