# Simulation 4milan_5e19_Z2 
#
#temps 2.000999999999940e-11 s 
#position suivant x    480 (micron) 
#
#col 0 : vitesse (cm/s) 
#col 1 : f0 x v**2 (a. u.) 
#col 2 : m_e x f1 x v**5 / 2 (a. u.) 
#
24861416.497778	2321821.256033	-0.000001
74584249.493334	20834248.700152	-0.017523
124307082.488890	57529222.315359	-1.724253
174029915.484445	111754401.877542	-35.179298
223752748.480001	182549759.121953	-332.127573
273475581.475557	268669436.610518	-1979.498023
323198414.471113	368610199.836231	-8681.342333
372921247.466669	480645756.459917	-30560.901851
422644080.462225	602866000.847374	-91159.002570
472366913.457781	733220053.401959	-238844.595587
522089746.453336	869561812.865796	-563678.780084
571812579.448892	1009696641.401406	-1220325.978953
621535412.444448	1151427752.058754	-2456885.556735
671258245.440004	1292600889.263253	-4648568.633383
720981078.435560	1431145970.755446	-8334054.608150
770703911.431116	1565114501.342050	-14251250.115540
820426744.426672	1692711765.873363	-23368179.607608
870149577.422228	1812323052.411503	-36904003.202211
919872410.417783	1922533434.147760	-56334808.264693
969595243.413339	2022140935.424396	-83378945.862514
1019318076.408895	2110163206.835786	-119957323.041209
1069040909.404451	2185838119.931201	-168125203.615900
1118763742.400007	2248618947.213908	-229973648.617029
1168486575.395563	2298165003.302125	-307500637.012517
1218209408.391119	2334328776.353250	-402454016.876192
1267932241.386675	2357140666.560198	-516150590.411046
1317655074.382231	2366792465.177976	-649277622.072171
1367377907.377786	2363620649.126199	-801684614.545727
1417100740.373342	2348090429.135841	-972174207.417058
1466823573.368898	2320781273.125910	-1158302002.242824
1516546406.364454	2282374340.546293	-1356197421.285322
1566269239.360010	2233641932.772615	-1560423258.524216
1615992072.355566	2175438726.019278	-1763901263.581248
1665714905.351122	2108694243.404833	-1957942995.949528
1715437738.346678	2034405768.835199	-2132433877.702035
1765160571.342233	1953630726.097287	-2276216329.537739
1814883404.337789	1867477463.292679	-2377698774.318263
1864606237.333345	1777093427.642354	-2425679796.947452
1914329070.328901	1683649926.681929	-2410326763.534382
1964051903.324457	1588323069.410821	-2324198260.513092
2013774736.320013	1492271053.153981	-2163165068.453952
2063497569.315569	1396608626.390090	-1927078041.985484
2113220402.311125	1302380205.825718	-1620058475.249181
2162943235.306680	1210533613.850375	-1250343160.762857
2212666068.302236	1121896617.795954	-829689584.278484
2262388901.297792	1037158335.997080	-372419323.719328
2312111734.293348	956857141.312448	105766609.828251
2361834567.288904	881376020.967521	589038979.344579
2411557400.284460	810945565.359475	1062599867.354585
2461280233.280015	745653991.569916	1513622380.348632
2511003066.275571	685462974.582349	1931889543.368241
2560725899.271127	630227636.637890	2310104284.259049
2610448732.266683	579718862.586567	2643890481.532123
2660171565.262239	533646153.709897	2931541003.786019
2709894398.257795	491679460.037273	3173589106.771018
2759617231.253351	453468779.964769	3372284710.537293
2809340064.248907	418660720.621756	3531049818.783029
2859062897.244462	386911614.431695	3653971896.673041
2908785730.240018	357897141.941789	3745374833.477945
2958508563.235574	331318690.071766	3809487976.463876
3008231396.231130	306906866.468142	3850217327.978130
3057954229.226686	284422696.250468	3871010816.486231
3107677062.222242	263657058.480493	3874801974.884616
3157399895.217798	244428893.231532	3864012970.752397
3207122728.213354	226582645.099774	3840597844.402510
3256845561.208910	209985323.287971	3806108949.010988
3306568394.204465	194523466.854418	3761772933.523704
3356291227.200021	180100217.409686	3708566314.109544
3406014060.195577	166632627.363118	3647284160.068019
3455736893.191133	154049273.271749	3578598298.338599
3505459726.186689	142288201.575548	3503103608.785737
3555182559.182245	131295207.204797	3421352327.892461
3604905392.177801	121022432.012892	3333877068.386218
3654628225.173357	111427268.052903	3241203149.359407
3704351058.168912	102471555.909958	3143850690.623232
3754073891.164468	94121077.817344	3042325700.827766
3803796724.160024	86345346.401209	2937098785.562987
3853519557.155580	79117673.661419	2828569759.300974
3903242390.151136	72415448.400010	2717017753.052465
3952965223.146692	66220446.794418	2602541216.694179
4002688056.142248	60518860.891053	2485000838.271416
4052410889.137804	55300612.775023	2363989998.234004
4102133722.133359	50557532.425663	2238866575.156188
4151856555.128915	46280223.665466	2108878174.461069
4201579388.124471	42453949.305322	1973391922.869106
4251302221.120027	39054487.823197	1832199545.010939
4301025054.115582	36045340.113485	1685821990.636063
4350747887.111138	33377573.324273	1535709833.268906
4400470720.106694	30992872.375563	1384248479.881800
4450193553.102250	28829274.473150	1234534223.516440
4499916386.097806	26828090.142174	1089966133.032075
4549639219.093362	24940131.722621	953762794.860240
4599362052.088918	23129724.495096	828532628.536544
4649084885.084474	21375834.536328	715996955.794348
4698807718.080029	19670579.195020	616905537.708524
4748530551.075585	18016020.455558	531124072.993361
4798253384.071141	16420330.610267	457834400.503154
4847976217.066697	14894237.061318	395778102.939792
4897699050.062253	13448286.210574	343486655.189803
4947421883.057809	12091097.343554	299464104.015680
4997144716.053365	10828514.141815	262310676.048980
5046867549.048921	9663430.685074	230791529.829504
5096590382.044477	8596044.220677	203862911.633595
5146313215.040032	7624324.391216	180669808.517013
5196036048.035588	6744548.949541	160527402.955376
5245758881.031144	5951814.498373	142895448.172291
5295481714.026700	5240476.318483	127351432.742197
5345204547.022256	4604501.716644	113565832.624716
5394927380.017812	4037738.964934	101280927.100583
5444650213.013368	3534112.434413	90293544.382311
5494373046.008924	3087757.433888	80441501.934526
5544095879.004479	2693108.046648	71593223.828296
5593818712.000035	2344949.609736	63639957.354616
5643541544.995591	2038445.365682	56490027.669773
5693264377.991147	1769144.759425	50064655.119396
5742987210.986703	1532979.058548	44294939.576422
5792710043.982259	1326248.503650	39119704.467944
5842432876.977815	1145604.070596	34483963.352409
5892155709.973371	988026.047337	30337830.373027
5941878542.968926	850800.992264	26635746.278925
5991601375.964482	731498.156903	23335920.412368
6041324208.960038	627946.122597	20399924.264202
6091047041.955594	538210.152576	17792384.095495
6140769874.951150	460570.574460	15480743.894515
6190492707.946706	393502.390115	13435069.829263
6240215540.942262	335656.222338	11627883.269582
6289938373.937818	285840.638143	10034014.389390
6339661206.933373	243005.851553	8630464.469778
6389384039.928929	206228.774410	7396279.583236
6439106872.924485	174699.369203	6312427.315802
6488829705.920041	147708.240328	5361681.784731
6538552538.915597	124635.391878	4528513.994328
6588275371.911153	104940.080951	3798987.078056
6637998204.906709	88151.690067	3160659.938477
6687721037.902265	73861.539357	2602495.240669
6737443870.897820	61715.548832	2114779.572836
6787166703.893376	51407.668105	1689048.804281
6836889536.888932	42674.031339	1318012.632914
6886612369.884488	35287.776740	995467.972423
6936335202.880044	29054.400993	716213.448538
6986058035.875600	23807.460394	475978.555357
7035780868.871156	19404.577028	271344.506605
7085503701.866712	15723.981549	99568.889497
7135226534.862267	12661.706790	-41703.741792
7184949367.857823	10129.028598	-154709.929039
7234672200.853379	8049.833227	-241706.635209
7284395033.848935	6358.132923	-305001.285677
7334117866.844491	4995.507300	-346793.200349
7383840699.840047	3908.068375	-368828.437961
7433563532.835603	3044.502810	-372379.936981
7483286365.831159	2358.136857	-359041.565196
7533009198.826715	1812.261648	-331496.738777
7582732031.822270	1381.832108	-292611.172739
7632454864.817826	1047.966535	-243685.469048
7682177697.813382	790.780289	-184959.661505
7731900530.808938	591.179856	-120081.160738
7781623363.804494	434.365736	-58307.975257
7831346196.800050	307.819896	-11373.794626
7881069029.795606	203.974288	12264.514718
7930791862.791162	123.259348	12608.099430
