# Profil de ElecX au temps 1.200000000000016e-11 
# simu : /Volumes/MERCURE/JOBS/tanh_50mic_Zeq2_5e19_B0/GNU/ElecX@y-c.set
# col 0 : abscisse (um)
# col 1 : ElecX (V/m)
0.000000	0.000000
1.000000	3142.546609
2.000000	3135.749466
3.000000	4433.718363
4.000000	6896.877840
5.000000	8541.259765
6.000000	10238.053189
7.000000	11949.680557
8.000000	13664.874383
9.000000	15383.116917
10.000000	17105.847540
11.000000	18832.453049
12.000000	20563.314241
13.000000	22299.732940
14.000000	24041.396039
15.000000	25788.228495
16.000000	27542.265641
17.000000	29302.069668
18.000000	31069.826296
19.000000	32843.863415
20.000000	34626.919411
21.000000	36417.618974
22.000000	38216.844223
23.000000	40025.541604
24.000000	41843.797605
25.000000	43671.064578
26.000000	45509.296848
27.000000	47357.945311
28.000000	49217.797412
29.000000	51088.369220
30.000000	52971.303321
31.000000	54866.179963
32.000000	56773.646491
33.000000	58693.676136
34.000000	60627.122228
35.000000	62574.220702
36.000000	64535.248307
37.000000	66510.623742
38.000000	68500.295789
39.000000	70505.381915
40.000000	72525.724860
41.000000	74561.704821
42.000000	76613.817851
43.000000	78682.000001
44.000000	80767.212877
45.000000	82869.278352
46.000000	84988.747402
47.000000	87126.002160
48.000000	89280.867127
49.000000	91454.289255
50.000000	93646.288814
51.000000	95857.148191
52.000000	98087.177657
53.000000	100336.841827
54.000000	102605.930984
55.000000	104895.354114
56.000000	107205.058445
57.000000	109535.372277
58.000000	111886.525454
59.000000	114258.915408
60.000000	116652.598552
61.000000	119067.922813
62.000000	121505.268332
63.000000	123964.747376
64.000000	126446.584985
65.000000	128951.094118
66.000000	131478.509152
67.000000	134028.954556
68.000000	136602.669555
69.000000	139200.041367
70.000000	141821.107667
71.000000	144466.134793
72.000000	147135.335499
73.000000	149828.901961
74.000000	152547.007254
75.000000	155289.890807
76.000000	158057.582228
77.000000	160850.501509
78.000000	163668.646528
79.000000	166512.247341
80.000000	169381.461526
81.000000	172276.437037
82.000000	175197.326608
83.000000	178144.297989
84.000000	181117.501052
85.000000	184117.019204
86.000000	187143.013279
87.000000	190195.674210
88.000000	193275.052464
89.000000	196381.302152
90.000000	199514.531654
91.000000	202674.841041
92.000000	205862.351489
93.000000	209077.161184
94.000000	212319.367202
95.000000	215589.057049
96.000000	218886.327866
97.000000	222211.262577
98.000000	225563.924124
99.000000	228944.391536
100.000000	232352.769927
101.000000	235789.101697
102.000000	239253.398586
103.000000	242745.719792
104.000000	246266.234281
105.000000	249814.930800
106.000000	253391.852241
107.000000	256997.039518
108.000000	260630.532800
109.000000	264292.358864
110.000000	267982.559342
111.000000	271701.155628
112.000000	275448.172632
113.000000	279223.630385
114.000000	283027.546602
115.000000	286859.930909
116.000000	290720.797610
117.000000	294610.152120
118.000000	298527.997494
119.000000	302474.334394
120.000000	306449.160461
121.000000	310452.468564
122.000000	314484.251816
123.000000	318544.499018
124.000000	322633.198305
125.000000	326750.248750
126.000000	330895.711135
127.000000	335069.586339
128.000000	339271.848803
129.000000	343502.451587
130.000000	347761.390738
131.000000	352048.626030
132.000000	356364.125263
133.000000	360707.854737
134.000000	365079.778989
135.000000	369479.860559
136.000000	373908.060331
137.000000	378364.342322
138.000000	382848.649141
139.000000	387360.952333
140.000000	391901.205850
141.000000	396469.360083
142.000000	401065.369406
143.000000	405689.189875
144.000000	410340.759069
145.000000	415020.043722
146.000000	419726.989058
147.000000	424461.543941
148.000000	429223.657040
149.000000	434013.271962
150.000000	438830.347757
151.000000	443674.825363
152.000000	448546.662780
153.000000	453445.659464
154.000000	458371.818697
155.000000	463325.228431
156.000000	468305.820796
157.000000	473313.548062
158.000000	478348.358362
159.000000	483410.198000
160.000000	488499.013307
161.000000	493614.751170
162.000000	498757.360376
163.000000	503926.791334
164.000000	509122.996081
165.000000	514345.928911
166.000000	519595.545869
167.000000	524871.804503
168.000000	530174.664749
169.000000	535504.087823
170.000000	540860.037017
171.000000	546242.477488
172.000000	551651.376332
173.000000	557086.702581
174.000000	562548.427408
175.000000	568036.524273
176.000000	573550.968533
177.000000	579091.738307
178.000000	584658.813857
179.000000	590252.178175
180.000000	595871.816775
181.000000	601517.717959
182.000000	607189.872672
183.000000	612888.275086
184.000000	618612.922159
185.000000	624363.813886
186.000000	630140.953855
187.000000	635944.348518
188.000000	641774.007965
189.000000	647629.945734
190.000000	653512.179015
191.000000	659420.728554
192.000000	665355.619046
193.000000	671316.879108
194.000000	677304.541164
195.000000	683318.641989
196.000000	689359.222281
197.000000	695426.327376
198.000000	701520.006836
199.000000	707640.314683
200.000000	713787.309826
201.000000	719961.055584
202.000000	726161.620385
203.000000	732389.077609
204.000000	738643.505448
205.000000	744924.987764
206.000000	751233.613138
207.000000	757569.476138
208.000000	763932.676559
209.000000	770323.319879
210.000000	776741.517522
211.000000	783187.386774
212.000000	789661.050859
213.000000	796162.639492
214.000000	802692.288336
215.000000	809250.139780
216.000000	815836.342839
217.000000	822451.052992
218.000000	829094.433074
219.000000	835766.652627
220.000000	842467.888419
221.000000	849198.324787
222.000000	855958.153531
223.000000	862747.574044
224.000000	869566.793713
225.000000	876416.027984
226.000000	883295.500510
227.000000	890205.443408
228.000000	897146.097341
229.000000	904117.711962
230.000000	911120.545675
231.000000	918154.866506
232.000000	925220.951599
233.000000	932319.087885
234.000000	939449.572482
235.000000	946612.712144
236.000000	953808.824510
237.000000	961038.237509
238.000000	968301.290300
239.000000	975598.333022
240.000000	982929.727247
241.000000	990295.846479
242.000000	997697.076075
243.000000	1005133.814047
244.000000	1012606.470426
245.000000	1020115.469051
246.000000	1027661.246488
247.000000	1035244.253131
248.000000	1042864.953521
249.000000	1050523.826354
250.000000	1058221.365269
251.000000	1065958.078996
252.000000	1073734.491702
253.000000	1081551.143645
254.000000	1089408.591332
255.000000	1097307.408295
256.000000	1105248.185011
257.000000	1113231.529948
258.000000	1121258.069572
259.000000	1129328.449069
260.000000	1137443.332970
261.000000	1145603.405184
262.000000	1153809.369858
263.000000	1162061.952176
264.000000	1170361.898346
265.000000	1178709.976471
266.000000	1187106.976954
267.000000	1195553.713654
268.000000	1204051.023345
269.000000	1212599.767671
270.000000	1221200.832704
271.000000	1229855.130260
272.000000	1238563.598236
273.000000	1247327.201102
274.000000	1256146.931093
275.000000	1265023.808571
276.000000	1273958.882630
277.000000	1282953.231846
278.000000	1292007.965292
279.000000	1301124.222995
280.000000	1310303.176510
281.000000	1319546.030043
282.000000	1328854.020996
283.000000	1338228.420680
284.000000	1347670.535025
285.000000	1357181.705681
286.000000	1366763.310248
287.000000	1376416.763581
288.000000	1386143.518077
289.000000	1395945.064815
290.000000	1405822.934115
291.000000	1415778.696331
292.000000	1425813.962653
293.000000	1435930.385599
294.000000	1446129.660321
295.000000	1456413.524817
296.000000	1466783.760702
297.000000	1477242.194255
298.000000	1487790.696756
299.000000	1498431.185325
300.000000	1509165.623448
301.000000	1519996.021822
302.000000	1530924.438972
303.000000	1541952.981488
304.000000	1553083.804971
305.000000	1564319.114325
306.000000	1575661.164644
307.000000	1587112.261073
308.000000	1598674.759795
309.000000	1610351.068156
310.000000	1622143.645263
311.000000	1634055.001777
312.000000	1646087.700961
313.000000	1658244.358337
314.000000	1670527.642004
315.000000	1682940.272970
316.000000	1695485.024962
317.000000	1708164.724617
318.000000	1720982.251523
319.000000	1733940.537878
320.000000	1747042.568551
321.000000	1760291.380957
322.000000	1773690.064521
323.000000	1787241.760358
324.000000	1800949.661422
325.000000	1814817.011067
326.000000	1828847.103331
327.000000	1843043.281958
328.000000	1857408.939754
329.000000	1871947.517628
330.000000	1886662.504339
331.000000	1901557.434774
332.000000	1916635.889461
333.000000	1931901.493481
334.000000	1947357.914945
335.000000	1963008.864182
336.000000	1978858.091930
337.000000	1994909.388577
338.000000	2011166.581915
339.000000	2027633.536095
340.000000	2044314.149704
341.000000	2061212.354235
342.000000	2078332.112000
343.000000	2095677.414382
344.000000	2113252.279917
345.000000	2131060.751686
346.000000	2149106.896320
347.000000	2167394.800387
348.000000	2185928.568864
349.000000	2204712.322855
350.000000	2223750.196597
351.000000	2243046.335194
352.000000	2262604.892299
353.000000	2282430.026832
354.000000	2302525.900346
355.000000	2322896.674974
356.000000	2343546.509300
357.000000	2364479.556239
358.000000	2385699.959723
359.000000	2407211.851678
360.000000	2429019.348503
361.000000	2451126.548616
362.000000	2473537.528106
363.000000	2496256.338310
364.000000	2519287.001677
365.000000	2542633.508627
366.000000	2566299.814044
367.000000	2590289.833096
368.000000	2614607.438491
369.000000	2639256.455476
370.000000	2664240.659146
371.000000	2689563.769604
372.000000	2715229.448758
373.000000	2741241.295416
374.000000	2767602.841981
375.000000	2794317.549444
376.000000	2821388.803569
377.000000	2848819.910431
378.000000	2876614.091576
379.000000	2904774.479908
380.000000	2933304.114589
381.000000	2962205.936581
382.000000	2991482.783439
383.000000	3021137.384832
384.000000	3051172.356830
385.000000	3081590.197189
386.000000	3112393.279762
387.000000	3143583.849503
388.000000	3175164.016516
389.000000	3207135.750574
390.000000	3239500.875678
391.000000	3272261.063939
392.000000	3305417.829761
393.000000	3338972.523845
394.000000	3372926.327322
395.000000	3407280.245266
396.000000	3442035.100605
397.000000	3477191.527785
398.000000	3512749.966587
399.000000	3548710.655593
400.000000	3585073.625633
401.000000	3621838.693680
402.000000	3659005.456035
403.000000	3696573.282180
404.000000	3734541.308401
405.000000	3772908.431081
406.000000	3811673.300763
407.000000	3850834.315852
408.000000	3890389.616556
409.000000	3930337.078994
410.000000	3970674.309061
411.000000	4011398.637477
412.000000	4052507.113724
413.000000	4093996.501328
414.000000	4135863.272904
415.000000	4178103.605243
416.000000	4220713.375434
417.000000	4263688.156666
418.000000	4307023.214908
419.000000	4350713.505343
420.000000	4394753.670072
421.000000	4439138.035511
422.000000	4483860.610892
423.000000	4528915.086645
424.000000	4574294.833884
425.000000	4619992.904295
426.000000	4666002.029931
427.000000	4712314.624916
428.000000	4758922.786534
429.000000	4805818.297583
430.000000	4852992.628905
431.000000	4900436.943221
432.000000	4948142.098792
433.000000	4996098.654365
434.000000	5044296.874153
435.000000	5092726.734100
436.000000	5141377.927931
437.000000	5190239.874495
438.000000	5239301.725048
439.000000	5288552.371307
440.000000	5337980.454068
441.000000	5387574.371927
442.000000	5437322.290072
443.000000	5487212.150360
444.000000	5537231.680324
445.000000	5587368.403136
446.000000	5637609.646988
447.000000	5687942.555095
448.000000	5738354.094510
449.000000	5788831.065792
450.000000	5839360.111010
451.000000	5889927.722206
452.000000	5940520.248553
453.000000	5991123.903068
454.000000	6041724.767803
455.000000	6092308.798651
456.000000	6142861.828245
457.000000	6193369.567808
458.000000	6243817.607344
459.000000	6294191.413893
460.000000	6344476.328452
461.000000	6394657.560290
462.000000	6444720.179494
463.000000	6494649.107462
464.000000	6544429.104088
465.000000	6594044.753872
466.000000	6643480.448273
467.000000	6692720.365875
468.000000	6741748.450095
469.000000	6790548.383871
470.000000	6839103.561458
471.000000	6887397.058127
472.000000	6935411.596567
473.000000	6983129.511027
474.000000	7030532.708908
475.000000	7077602.630056
476.000000	7124320.203812
477.000000	7170665.804167
478.000000	7216619.203151
479.000000	7262159.523113
480.000000	7307265.187398
481.000000	7351913.871143
482.000000	7396082.450763
483.000000	7439746.954826
484.000000	7482882.514711
485.000000	7525463.316934
486.000000	7567462.557404
487.000000	7608852.397904
488.000000	7649603.925913
489.000000	7689687.118222
490.000000	7729070.809028
491.000000	7767722.663491
492.000000	7805609.157191
493.000000	7842695.562782
494.000000	7878945.943791
495.000000	7914323.157480
496.000000	7948788.866423
497.000000	7982303.560435
498.000000	8014826.589174
499.000000	8046316.205944
500.000000	8076729.624253
501.000000	8106023.086316
502.000000	8134151.945466
503.000000	8161070.761785
504.000000	8186733.412177
505.000000	8211093.214386
506.000000	8234103.065782
507.000000	8255715.595912
508.000000	8275883.331927
509.000000	8294558.886617
510.000000	8311695.143121
511.000000	8327245.466479
512.000000	8341163.921435
513.000000	8353405.502210
514.000000	8363926.369598
515.000000	8372684.097771
516.000000	8379637.925887
517.000000	8384749.014949
518.000000	8387980.704646
519.000000	8389298.773345
520.000000	8388671.691825
521.000000	8386070.874368
522.000000	8381470.921363
523.000000	8374849.851382
524.000000	8366189.320313
525.000000	8355474.825230
526.000000	8342695.889049
527.000000	8327846.225585
528.000000	8310923.880381
529.000000	8291931.346956
530.000000	8270875.655663
531.000000	8247768.433807
532.000000	8222625.935197
533.000000	8195469.039396
534.000000	8166323.218768
535.000000	8135218.473265
536.000000	8102189.234661
537.000000	8067274.238285
538.000000	8030516.365773
539.000000	7991962.458485
540.000000	7951663.104216
541.000000	7909672.399150
542.000000	7866047.686940
543.000000	7820849.278413
544.000000	7774140.154392
545.000000	7725985.654066
546.000000	7676453.153449
547.000000	7625611.736170
548.000000	7573531.859630
549.000000	7520285.020624
550.000000	7465943.422865
551.000000	7410579.649404
552.000000	7354266.342420
553.000000	7297075.894080
554.000000	7239080.149117
555.000000	7180350.123277
556.000000	7120955.738279
557.000000	7060965.574922
558.000000	7000446.645756
559.000000	6939464.187884
560.000000	6878081.476422
561.000000	6816359.659367
562.000000	6754357.614089
563.000000	6692131.825178
564.000000	6629736.282740
565.000000	6567222.401418
566.000000	6504638.958678
567.000000	6442032.052908
568.000000	6379445.079553
569.000000	6316918.724123
570.000000	6254490.970844
571.000000	6192197.124830
572.000000	6130069.847895
573.000000	6068139.206050
574.000000	6006432.728033
575.000000	5944975.472398
576.000000	5883790.102258
577.000000	5822896.967596
578.000000	5762314.194092
579.000000	5702057.777907
580.000000	5642141.684153
581.000000	5582577.947597
582.000000	5523376.774207
583.000000	5464546.642662
584.000000	5406094.404516
585.000000	5348025.384800
586.000000	5290343.486922
587.000000	5233051.300563
588.000000	5176150.204504
589.000000	5119640.452356
590.000000	5063521.243225
591.000000	5007790.794595
592.000000	4952446.435101
593.000000	4897484.713429
594.000000	4842901.502067
595.000000	4788692.078016
596.000000	4734851.176273
597.000000	4681373.019868
598.000000	4628251.341936
599.000000	4575479.432642
600.000000	4523050.234134
601.000000	4470956.454781
602.000000	4419190.640978
603.000000	4367745.183248
604.000000	4316612.290229
605.000000	4265783.979708
606.000000	4215252.125098
607.000000	4165008.563635
608.000000	4115045.181120
609.000000	4065353.868836
610.000000	4015926.433550
611.000000	3966754.654047
612.000000	3917830.440565
613.000000	3869145.877296
614.000000	3820693.128333
615.000000	3772464.359827
616.000000	3724451.768675
617.000000	3676647.675133
618.000000	3629044.484375
619.000000	3581634.645298
620.000000	3534410.910462
621.000000	3487366.358310
622.000000	3440493.809104
623.000000	3393786.021562
624.000000	3347236.356135
625.000000	3300838.480833
626.000000	3254585.871585
627.000000	3208472.011050
628.000000	3162490.976571
629.000000	3116636.948496
630.000000	3070903.781081
631.000000	3025285.875893
632.000000	2979776.889213
633.000000	2934372.649008
634.000000	2889068.471959
635.000000	2843856.705987
636.000000	2798735.682978
637.000000	2753699.188098
638.000000	2708742.597603
639.000000	2663861.526303
640.000000	2619054.725444
641.000000	2574309.229765
642.000000	2529640.185479
643.000000	2485010.644880
644.000000	2440473.298819
645.000000	2395938.761287
646.000000	2351531.211609
647.000000	2307103.930807
648.000000	2262739.256836
649.000000	2218450.873599
650.000000	2174153.581746
651.000000	2129941.899211
652.000000	2085723.136151
653.000000	2041592.697630
654.000000	1997436.855573
655.000000	1953389.148649
656.000000	1909290.479665
657.000000	1865308.480703
658.000000	1821271.007946
659.000000	1777334.800830
660.000000	1733401.191732
661.000000	1689488.563212
662.000000	1645647.414299
663.000000	1601772.077128
664.000000	1557994.176534
665.000000	1514180.481036
666.000000	1470446.274286
667.000000	1426732.242385
668.000000	1383023.507699
669.000000	1339394.535221
670.000000	1295735.485132
671.000000	1252160.979676
672.000000	1208575.464492
673.000000	1165046.884007
674.000000	1121558.762351
675.000000	1078074.779240
676.000000	1034653.224836
677.000000	991231.158282
678.000000	947866.133244
679.000000	904533.866498
680.000000	861198.343883
681.000000	817943.069652
682.000000	774694.227703
683.000000	731456.415584
684.000000	688277.965183
685.000000	645114.814687
686.000000	601969.907885
687.000000	558870.986499
688.000000	515775.982336
689.000000	472711.809495
690.000000	429673.349386
691.000000	386643.968058
692.000000	343639.848331
693.000000	300651.151584
694.000000	257674.548767
695.000000	214710.795675
696.000000	171759.355313
697.000000	128895.926938
698.000000	85671.748297
699.000000	43054.050706
700.000000	0.000000
