# Profil de ElecSpitzerX au temps 1.200000000000016e-11 
# simu : /Volumes/MERCURE/JOBS/tanh_50mic_Zeq2_5e19_B0/GNU/ElecSpitzerX@y-c.set
# col 0 : abscisse (um)
# col 1 : ElecSpitzerX (V/m)
0.000000	-0.000000
1.000000	4992.242345
2.000000	6806.332900
3.000000	9942.382218
4.000000	14250.361036
5.000000	17736.161103
6.000000	21275.682989
7.000000	24831.756784
8.000000	28393.405666
9.000000	31960.424407
10.000000	35534.570221
11.000000	39115.515379
12.000000	42703.932637
13.000000	46301.424203
14.000000	49907.952848
15.000000	53523.721863
16.000000	57151.066567
17.000000	60788.805619
18.000000	64439.418525
19.000000	68101.480772
20.000000	71778.026865
21.000000	75467.924497
22.000000	79172.321823
23.000000	82892.430999
24.000000	86628.586504
25.000000	90380.477212
26.000000	94150.323970
27.000000	97937.807532
28.000000	101743.954398
29.000000	105568.501151
30.000000	109413.334953
31.000000	113278.248246
32.000000	117164.107253
33.000000	121071.091789
34.000000	125000.269101
35.000000	128952.075201
36.000000	132926.980623
37.000000	136925.593575
38.000000	140948.041761
39.000000	144995.632624
40.000000	149068.374080
41.000000	153166.811575
42.000000	157291.602862
43.000000	161442.831526
44.000000	165621.615903
45.000000	169827.910485
46.000000	174062.402991
47.000000	178325.602569
48.000000	182617.445386
49.000000	186939.002269
50.000000	191290.395461
51.000000	195672.004918
52.000000	200084.232566
53.000000	204527.629663
54.000000	209002.054676
55.000000	213508.497048
56.000000	218046.960880
57.000000	222617.828777
58.000000	227221.376257
59.000000	231858.042056
60.000000	236527.909599
61.000000	241231.351929
62.000000	245968.767964
63.000000	250740.274880
64.000000	255546.096603
65.000000	260386.539605
66.000000	265261.821672
67.000000	270172.039881
68.000000	275117.401347
69.000000	280098.256760
70.000000	285114.593374
71.000000	290166.626667
72.000000	295254.507781
73.000000	300378.353473
74.000000	305538.254749
75.000000	310734.364143
76.000000	315966.611727
77.000000	321235.319340
78.000000	326540.368889
79.000000	331881.871753
80.000000	337259.857817
81.000000	342674.338237
82.000000	348125.322551
83.000000	353612.827446
84.000000	359136.843250
85.000000	364697.284947
86.000000	370294.139462
87.000000	375927.417407
88.000000	381596.976462
89.000000	387302.775250
90.000000	393044.716532
91.000000	398822.687595
92.000000	404636.590640
93.000000	410486.296944
94.000000	416371.669587
95.000000	422292.553686
96.000000	428248.799921
97.000000	434240.235515
98.000000	440266.661219
99.000000	446327.885510
100.000000	452423.740773
101.000000	458553.977942
102.000000	464718.330481
103.000000	470916.423937
104.000000	477148.373216
105.000000	483413.756716
106.000000	489712.297619
107.000000	496043.715291
108.000000	502407.723908
109.000000	508804.018418
110.000000	515232.304038
111.000000	521692.259427
112.000000	528183.561599
113.000000	534705.877366
114.000000	541258.866032
115.000000	547842.173457
116.000000	554455.445774
117.000000	561098.315137
118.000000	567770.406547
119.000000	574471.338123
120.000000	581200.720525
121.000000	587958.154924
122.000000	594743.239251
123.000000	601555.563202
124.000000	608394.707916
125.000000	615260.071265
126.000000	622151.374285
127.000000	629068.265352
128.000000	636010.286040
129.000000	642976.968045
130.000000	649967.885595
131.000000	656982.572490
132.000000	664020.568414
133.000000	671081.409353
134.000000	678164.627196
135.000000	685269.749697
136.000000	692396.301023
137.000000	699543.806790
138.000000	706711.768361
139.000000	713899.716558
140.000000	721107.162411
141.000000	728333.612042
142.000000	735578.574860
143.000000	742841.561360
144.000000	750122.061499
145.000000	757419.596609
146.000000	764733.664859
147.000000	772063.767913
148.000000	779409.407085
149.000000	786770.077559
150.000000	794145.294169
151.000000	801534.551740
152.000000	808937.347855
153.000000	816352.917212
154.000000	823780.754444
155.000000	831220.800018
156.000000	838672.502908
157.000000	846135.382858
158.000000	853608.948987
159.000000	861092.706952
160.000000	868586.163276
161.000000	876088.827450
162.000000	883600.214178
163.000000	891119.843611
164.000000	898647.241477
165.000000	906181.939828
166.000000	913723.476564
167.000000	921271.395082
168.000000	928825.245317
169.000000	936384.582506
170.000000	943948.968265
171.000000	951517.970333
172.000000	959091.162795
173.000000	966668.126319
174.000000	974248.448418
175.000000	981831.723828
176.000000	989417.554269
177.000000	997005.549479
178.000000	1004595.326862
179.000000	1012186.512124
180.000000	1019778.739390
181.000000	1027371.651603
182.000000	1034964.900583
183.000000	1042558.147787
184.000000	1050151.064121
185.000000	1057743.330337
186.000000	1065334.637817
187.000000	1072924.688027
188.000000	1080513.193573
189.000000	1088099.878086
190.000000	1095684.476751
191.000000	1103266.736371
192.000000	1110846.415980
193.000000	1118423.287067
194.000000	1125997.133595
195.000000	1133567.752892
196.000000	1141134.955290
197.000000	1148698.565233
198.000000	1156258.420971
199.000000	1163814.375080
200.000000	1171366.295087
201.000000	1178914.063286
202.000000	1186457.577651
203.000000	1193996.751899
204.000000	1201531.515621
205.000000	1209061.815415
206.000000	1216587.614122
207.000000	1224108.892437
208.000000	1231625.648338
209.000000	1239137.897844
210.000000	1246645.675558
211.000000	1254149.034803
212.000000	1261648.048060
213.000000	1269142.807742
214.000000	1276633.425902
215.000000	1284120.035435
216.000000	1291602.790134
217.000000	1299081.864898
218.000000	1306557.456937
219.000000	1314029.785400
220.000000	1321499.092182
221.000000	1328965.642677
222.000000	1336429.725950
223.000000	1343891.655145
224.000000	1351351.768309
225.000000	1358810.428751
226.000000	1366268.025537
227.000000	1373724.974096
228.000000	1381181.716708
229.000000	1388638.723208
230.000000	1396096.491239
231.000000	1403555.547405
232.000000	1411016.447175
233.000000	1418479.775971
234.000000	1425946.149911
235.000000	1433416.215665
236.000000	1440890.652142
237.000000	1448370.170244
238.000000	1455855.514292
239.000000	1463347.462136
240.000000	1470846.826058
241.000000	1478354.453707
242.000000	1485871.228456
243.000000	1493398.070652
244.000000	1500935.937340
245.000000	1508485.824699
246.000000	1516048.767229
247.000000	1523625.839398
248.000000	1531218.156421
249.000000	1538826.874737
250.000000	1546453.193269
251.000000	1554098.354061
252.000000	1561763.643077
253.000000	1569450.391391
254.000000	1577159.975775
255.000000	1584893.820041
256.000000	1592653.395369
257.000000	1600440.221906
258.000000	1608255.869250
259.000000	1616101.957668
260.000000	1623980.159228
261.000000	1631892.198323
262.000000	1639839.852938
263.000000	1647824.956161
264.000000	1655849.396426
265.000000	1663915.118956
266.000000	1672024.126686
267.000000	1680178.481853
268.000000	1688380.305893
269.000000	1696631.781938
270.000000	1704935.154736
271.000000	1713292.732457
272.000000	1721706.887487
273.000000	1730180.057242
274.000000	1738714.745822
275.000000	1747313.524824
276.000000	1755979.034189
277.000000	1764713.983390
278.000000	1773521.152774
279.000000	1782403.394316
280.000000	1791363.632469
281.000000	1800404.865599
282.000000	1809530.166733
283.000000	1818742.684499
284.000000	1828045.643973
285.000000	1837442.348048
286.000000	1846936.177633
287.000000	1856530.593162
288.000000	1866229.134844
289.000000	1876035.423884
290.000000	1885953.162911
291.000000	1895986.136795
292.000000	1906138.213253
293.000000	1916413.343177
294.000000	1926815.561757
295.000000	1937348.988428
296.000000	1948017.827208
297.000000	1958826.367543
298.000000	1969778.984000
299.000000	1980880.136807
300.000000	1992134.371666
301.000000	2003546.320021
302.000000	2015120.699114
303.000000	2026862.311207
304.000000	2038776.043970
305.000000	2050866.869676
306.000000	2063139.845302
307.000000	2075600.111153
308.000000	2088252.890939
309.000000	2101103.490552
310.000000	2114157.297493
311.000000	2127419.779256
312.000000	2140896.483029
313.000000	2154593.033768
314.000000	2168515.132960
315.000000	2182668.557316
316.000000	2197059.156785
317.000000	2211692.852952
318.000000	2226575.637199
319.000000	2241713.568244
320.000000	2257112.770254
321.000000	2272779.430524
322.000000	2288719.796706
323.000000	2304940.174141
324.000000	2321446.923637
325.000000	2338246.457548
326.000000	2355345.237527
327.000000	2372749.770913
328.000000	2390466.607325
329.000000	2408502.335019
330.000000	2426863.577761
331.000000	2445556.990160
332.000000	2464589.254268
333.000000	2483967.075386
334.000000	2503697.177480
335.000000	2523786.299218
336.000000	2544241.188883
337.000000	2565068.600485
338.000000	2586275.288027
339.000000	2607868.001234
340.000000	2629853.480183
341.000000	2652238.450314
342.000000	2675029.616906
343.000000	2698233.659735
344.000000	2721857.227783
345.000000	2745906.932818
346.000000	2770389.345082
347.000000	2795310.985864
348.000000	2820678.322400
349.000000	2846497.762039
350.000000	2872775.645488
351.000000	2899518.240905
352.000000	2926731.738013
353.000000	2954422.240996
354.000000	2982595.762268
355.000000	3011258.216850
356.000000	3040415.414317
357.000000	3070073.053241
358.000000	3100236.714049
359.000000	3130911.852445
360.000000	3162103.792060
361.000000	3193817.718499
362.000000	3226058.671148
363.000000	3258831.537211
364.000000	3292141.043732
365.000000	3325991.750879
366.000000	3360388.044680
367.000000	3395334.129003
368.000000	3430834.019274
369.000000	3466891.533433
370.000000	3503510.285644
371.000000	3540693.677430
372.000000	3578444.890729
373.000000	3616766.878897
374.000000	3655662.359521
375.000000	3695133.805238
376.000000	3735183.435900
377.000000	3775813.209871
378.000000	3817024.814890
379.000000	3858819.659608
380.000000	3901198.864079
381.000000	3944163.250725
382.000000	3987713.334534
383.000000	4031849.313837
384.000000	4076571.059768
385.000000	4121878.106631
386.000000	4167769.641292
387.000000	4214244.493118
388.000000	4261301.122715
389.000000	4308937.611197
390.000000	4357151.649410
391.000000	4405940.526303
392.000000	4455301.117593
393.000000	4505229.874231
394.000000	4555722.810905
395.000000	4606775.493889
396.000000	4658383.029351
397.000000	4710540.051337
398.000000	4763240.710017
399.000000	4816478.659588
400.000000	4870247.046218
401.000000	4924538.496671
402.000000	4979345.106116
403.000000	5034658.427038
404.000000	5090469.457958
405.000000	5146768.632028
406.000000	5203545.806827
407.000000	5260790.253889
408.000000	5318490.649018
409.000000	5376635.062980
410.000000	5435210.952441
411.000000	5494205.152645
412.000000	5553603.869263
413.000000	5613392.672408
414.000000	5673556.490744
415.000000	5734079.606419
416.000000	5794945.651726
417.000000	5856137.606046
418.000000	5917637.794566
419.000000	5979427.887356
420.000000	6041488.900798
421.000000	6103801.199368
422.000000	6166344.499539
423.000000	6229097.874498
424.000000	6292039.760867
425.000000	6355147.966942
426.000000	6418399.681710
427.000000	6481771.486923
428.000000	6545239.369561
429.000000	6608778.736661
430.000000	6672364.431231
431.000000	6735970.750823
432.000000	6799571.466606
433.000000	6863139.845111
434.000000	6926648.670819
435.000000	6990070.271026
436.000000	7053376.541595
437.000000	7116538.974728
438.000000	7179528.687620
439.000000	7242316.452721
440.000000	7304872.729160
441.000000	7367167.695092
442.000000	7429171.280514
443.000000	7490853.202000
444.000000	7552182.996594
445.000000	7613130.057054
446.000000	7673663.666575
447.000000	7733753.034225
448.000000	7793367.329013
449.000000	7852475.714756
450.000000	7911047.382671
451.000000	7969051.584112
452.000000	8026457.661291
453.000000	8083235.076739
454.000000	8139353.440349
455.000000	8194782.534841
456.000000	8249492.338331
457.000000	8303453.044201
458.000000	8356635.078092
459.000000	8409009.111202
460.000000	8460546.070570
461.000000	8511217.144980
462.000000	8560993.787178
463.000000	8609847.712083
464.000000	8657750.889687
465.000000	8704675.534798
466.000000	8750594.091071
467.000000	8795479.210747
468.000000	8839303.729977
469.000000	8882040.639145
470.000000	8923663.048598
471.000000	8964144.150490
472.000000	9003457.175708
473.000000	9041575.347307
474.000000	9078471.830209
475.000000	9114119.677603
476.000000	9148491.774615
477.000000	9181560.779547
478.000000	9213299.063607
479.000000	9243678.649616
480.000000	9272671.150116
481.000000	9300247.706469
482.000000	9326378.928470
483.000000	9351034.837085
484.000000	9374184.809679
485.000000	9395797.529605
486.000000	9415840.941174
487.000000	9434282.210695
488.000000	9451087.694953
489.000000	9466222.918335
490.000000	9479652.559469
491.000000	9491340.448641
492.000000	9501249.577195
493.000000	9509342.119944
494.000000	9515579.471230
495.000000	9519922.296571
496.000000	9522330.599683
497.000000	9522763.806420
498.000000	9521180.866211
499.000000	9517540.371302
500.000000	9511800.694767
501.000000	9503920.146978
502.000000	9493857.151151
503.000000	9481570.437404
504.000000	9467019.255806
505.000000	9450163.606851
506.000000	9430964.489756
507.000000	9409384.166252
508.000000	9385386.439011
509.000000	9358936.948136
510.000000	9330003.470538
511.000000	9298556.235913
512.000000	9264568.247804
513.000000	9228015.609449
514.000000	9188877.850932
515.000000	9147138.255644
516.000000	9102784.181907
517.000000	9055807.376974
518.000000	9006204.278509
519.000000	8953976.302516
520.000000	8899130.110666
521.000000	8841677.855883
522.000000	8781637.401674
523.000000	8719032.511544
524.000000	8653893.005312
525.000000	8586254.879772
526.000000	8516160.389983
527.000000	8443658.089955
528.000000	8368802.829675
529.000000	8291655.707877
530.000000	8212283.978993
531.000000	8130760.914451
532.000000	8047165.617682
533.000000	7961582.794809
534.000000	7874102.481365
535.000000	7784819.727464
536.000000	7693834.244067
537.000000	7601250.013142
538.000000	7507174.865769
539.000000	7411720.031720
540.000000	7314999.665180
541.000000	7217130.351299
542.000000	7118230.598243
543.000000	7018420.319910
544.000000	6917820.314658
545.000000	6816551.744524
546.000000	6714735.620538
547.000000	6612492.298790
548.000000	6509940.991022
549.000000	6407199.294759
550.000000	6304382.746200
551.000000	6201604.399064
552.000000	6098974.432032
553.000000	5996599.788068
554.000000	5894583.846742
555.000000	5793026.132041
556.000000	5692022.056768
557.000000	5591662.703201
558.000000	5492034.639919
559.000000	5393219.774255
560.000000	5295295.239191
561.000000	5198333.314323
562.000000	5102401.379540
563.000000	5007561.899594
564.000000	4913872.436681
565.000000	4821385.689684
566.000000	4730149.557930
567.000000	4640207.228748
568.000000	4551597.285915
569.000000	4464353.835626
570.000000	4378506.647399
571.000000	4294081.306669
572.000000	4211099.378611
573.000000	4129578.581394
574.000000	4049532.966267
575.000000	3970973.101435
576.000000	3893906.258174
577.000000	3818336.599852
578.000000	3744265.373857
579.000000	3671691.104432
580.000000	3600609.783386
581.000000	3531015.055635
582.000000	3462898.398636
583.000000	3396249.293686
584.000000	3331055.388800
585.000000	3267302.658229
586.000000	3204975.567365
587.000000	3144057.240944
588.000000	3084529.613417
589.000000	3026373.537750
590.000000	2969568.860842
591.000000	2914094.510521
592.000000	2859928.631573
593.000000	2807048.755741
594.000000	2755431.951893
595.000000	2705054.918395
596.000000	2655894.014136
597.000000	2607925.244308
598.000000	2561124.240541
599.000000	2515466.311520
600.000000	2470926.605970
601.000000	2427480.306561
602.000000	2385102.710063
603.000000	2343769.156308
604.000000	2303454.902958
605.000000	2264135.061897
606.000000	2225784.676223
607.000000	2188378.931744
608.000000	2151893.287601
609.000000	2116303.301644
610.000000	2081584.385907
611.000000	2047711.934556
612.000000	2014661.664073
613.000000	1982409.637626
614.000000	1950931.985381
615.000000	1920204.708698
616.000000	1890203.754846
617.000000	1860905.217740
618.000000	1832285.215584
619.000000	1804319.781037
620.000000	1776985.488945
621.000000	1750259.363188
622.000000	1724117.517518
623.000000	1698535.754208
624.000000	1673491.109992
625.000000	1648960.947117
626.000000	1624921.824691
627.000000	1601350.108000
628.000000	1578223.318098
629.000000	1555518.768001
630.000000	1533212.776950
631.000000	1511282.736621
632.000000	1489703.952301
633.000000	1468456.968603
634.000000	1447519.885874
635.000000	1426864.337406
636.000000	1406475.981722
637.000000	1386328.484742
638.000000	1366400.013572
639.000000	1346668.951313
640.000000	1327120.040925
641.000000	1307711.645087
642.000000	1288466.912304
643.000000	1269286.058409
644.000000	1250280.676522
645.000000	1231223.518291
646.000000	1212355.638121
647.000000	1193515.783378
648.000000	1174672.442763
649.000000	1155832.073492
650.000000	1136916.255807
651.000000	1118058.381851
652.000000	1099050.693014
653.000000	1080095.734170
654.000000	1060934.363044
655.000000	1041820.363439
656.000000	1022463.681078
657.000000	1003108.693913
658.000000	983537.945200
659.000000	963863.859655
660.000000	944055.560190
661.000000	924014.181977
662.000000	903912.011413
663.000000	883508.089984
664.000000	863027.819889
665.000000	842286.608393
666.000000	821362.619459
667.000000	800276.345741
668.000000	778897.221365
669.000000	757415.035452
670.000000	735617.808579
671.000000	713680.847017
672.000000	691495.792200
673.000000	669083.691428
674.000000	646513.214797
675.000000	623644.995886
676.000000	600665.017875
677.000000	577367.812528
678.000000	553963.571579
679.000000	530304.180143
680.000000	506434.312568
681.000000	482445.982656
682.000000	458212.502295
683.000000	433793.088855
684.000000	409257.925634
685.000000	384504.790259
686.000000	359615.038647
687.000000	334585.718307
688.000000	309401.950289
689.000000	284086.627421
690.000000	258667.521816
691.000000	233116.159167
692.000000	207476.746745
693.000000	181745.557312
694.000000	155931.759950
695.000000	130050.491375
696.000000	104113.429919
697.000000	78195.340673
698.000000	51947.912851
699.000000	26147.255418
700.000000	-0.000000
