# Profil de ElecSpitzerX au temps 1.200000000000016e-11 
# simu : /Volumes/MERCURE/JOBS/tanh_50mic_Zeq2_B0/GNU/ElecSpitzerX@y-c.set
# col 0 : abscisse (um)
# col 1 : ElecSpitzerX (V/m)
0.000000	-0.000000
1.000000	2513.593681
2.000000	1926.122582
3.000000	2721.053234
4.000000	4536.101877
5.000000	5583.967467
6.000000	6684.836688
7.000000	7796.587401
8.000000	8909.840949
9.000000	10023.551197
10.000000	11137.606507
11.000000	12252.018390
12.000000	13366.816343
13.000000	14482.031011
14.000000	15597.692089
15.000000	16713.828945
16.000000	17830.470447
17.000000	18947.645355
18.000000	20065.382116
19.000000	21183.709316
20.000000	22302.655015
21.000000	23422.247031
22.000000	24542.513379
23.000000	25663.481427
24.000000	26785.178083
25.000000	27907.630596
26.000000	29030.865230
27.000000	30154.908275
28.000000	31279.785520
29.000000	32405.522811
30.000000	33532.144963
31.000000	34659.677434
32.000000	35788.144632
33.000000	36917.570909
34.000000	38047.980708
35.000000	39179.397812
36.000000	40311.845982
37.000000	41445.348983
38.000000	42579.930501
39.000000	43715.613587
40.000000	44852.422086
41.000000	45990.379299
42.000000	47129.508734
43.000000	48269.834278
44.000000	49411.379538
45.000000	50554.168888
46.000000	51698.226454
47.000000	52843.577451
48.000000	53990.246731
49.000000	55138.260313
50.000000	56287.644588
51.000000	57438.426496
52.000000	58590.634026
53.000000	59744.295737
54.000000	60899.441336
55.000000	62056.101244
56.000000	63214.307588
57.000000	64374.093081
58.000000	65535.492155
59.000000	66698.540482
60.000000	67863.275332
61.000000	69029.735584
62.000000	70197.961913
63.000000	71367.996687
64.000000	72539.884437
65.000000	73713.671644
66.000000	74889.406992
67.000000	76067.141577
68.000000	77246.928811
69.000000	78428.824676
70.000000	79612.888043
71.000000	80799.180161
72.000000	81987.765690
73.000000	83178.712020
74.000000	84372.089805
75.000000	85567.973079
76.000000	86766.439165
77.000000	87967.569281
78.000000	89171.447932
79.000000	90378.163695
80.000000	91587.809154
81.000000	92800.480819
82.000000	94016.279541
83.000000	95235.310451
84.000000	96457.683196
85.000000	97683.512149
86.000000	98912.916214
87.000000	100146.019225
88.000000	101382.950231
89.000000	102623.843043
90.000000	103868.837075
91.000000	105118.076759
92.000000	106371.712381
93.000000	107629.899417
94.000000	108892.799621
95.000000	110160.579921
96.000000	111433.413951
97.000000	112711.480763
98.000000	113994.965871
99.000000	115284.061106
100.000000	116578.964794
101.000000	117879.881463
102.000000	119187.022231
103.000000	120500.605405
104.000000	121820.855566
105.000000	123148.004257
106.000000	124482.290120
107.000000	125823.959030
108.000000	127173.263391
109.000000	128530.463459
110.000000	129895.826325
111.000000	131269.626695
112.000000	132652.146767
113.000000	134043.675825
114.000000	135444.511177
115.000000	136854.957359
116.000000	138275.327108
117.000000	139705.940035
118.000000	141147.124385
119.000000	142599.215855
120.000000	144062.557838
121.000000	145537.502046
122.000000	147024.407581
123.000000	148523.642200
124.000000	150035.581242
125.000000	151560.607951
126.000000	153099.114075
127.000000	154651.499154
128.000000	156218.170962
129.000000	157799.545380
130.000000	159396.046386
131.000000	161008.106222
132.000000	162636.165411
133.000000	164280.672381
134.000000	165942.084065
135.000000	167620.865416
136.000000	169317.489820
137.000000	171032.438717
138.000000	172766.201679
139.000000	174519.277166
140.000000	176292.170997
141.000000	178085.398050
142.000000	179899.480803
143.000000	181734.950594
144.000000	183592.346691
145.000000	185472.216600
146.000000	187375.116411
147.000000	189301.610138
148.000000	191252.270444
149.000000	193227.678156
150.000000	195228.422246
151.000000	197255.100237
152.000000	199308.317956
153.000000	201388.689526
154.000000	203496.837335
155.000000	205633.392416
156.000000	207798.993980
157.000000	209994.289867
158.000000	212219.936004
159.000000	214476.597396
160.000000	216764.947081
161.000000	219085.666731
162.000000	221439.446882
163.000000	223826.986428
164.000000	226248.993070
165.000000	228706.183429
166.000000	231199.282795
167.000000	233729.025148
168.000000	236296.153846
169.000000	238901.420994
170.000000	241545.587999
171.000000	244229.425408
172.000000	246953.713171
173.000000	249719.240188
174.000000	252526.805877
175.000000	255377.218324
176.000000	258271.296060
177.000000	261209.867278
178.000000	264193.770216
179.000000	267223.853503
180.000000	270300.975996
181.000000	273426.007289
182.000000	276599.827602
183.000000	279823.328200
184.000000	283097.411379
185.000000	286422.990740
186.000000	289800.991631
187.000000	293232.351117
188.000000	296718.018160
189.000000	300258.954346
190.000000	303856.133454
191.000000	307510.542163
192.000000	311223.180430
193.000000	314995.061464
194.000000	318827.212168
195.000000	322720.673238
196.000000	326676.500266
197.000000	330695.762865
198.000000	334779.545982
199.000000	338928.949892
200.000000	343145.090528
201.000000	347429.099875
202.000000	351782.126598
203.000000	356205.335864
204.000000	360699.910581
205.000000	365267.051037
206.000000	369907.975817
207.000000	374623.921655
208.000000	379416.145070
209.000000	384285.921345
210.000000	389234.546221
211.000000	394263.335268
212.000000	399373.625490
213.000000	404566.775107
214.000000	409844.164160
215.000000	415207.195045
216.000000	420657.293512
217.000000	426195.908286
218.000000	431824.512486
219.000000	437544.603397
220.000000	443357.703860
221.000000	449265.362227
222.000000	455269.153001
223.000000	461370.677655
224.000000	467571.565156
225.000000	473873.472369
226.000000	480278.084807
227.000000	486787.117514
228.000000	493402.314787
229.000000	500125.452220
230.000000	506958.335908
231.000000	513902.803989
232.000000	520960.726838
233.000000	528134.008089
234.000000	535424.584928
235.000000	542834.429147
236.000000	550365.547138
237.000000	558019.981344
238.000000	565799.810579
239.000000	573707.150626
240.000000	581744.154980
241.000000	589913.015519
242.000000	598215.963542
243.000000	606655.269881
244.000000	615233.245812
245.000000	623952.244193
246.000000	632814.659434
247.000000	641822.928741
248.000000	650979.532612
249.000000	660286.995749
250.000000	669747.887222
251.000000	679364.822041
252.000000	689140.461128
253.000000	699077.512140
254.000000	709178.730888
255.000000	719446.920952
256.000000	729884.935412
257.000000	740495.676687
258.000000	751282.098134
259.000000	762247.203941
260.000000	773394.050175
261.000000	784725.745985
262.000000	796245.453416
263.000000	807956.388608
264.000000	819861.822500
265.000000	831965.081481
266.000000	844269.548104
267.000000	856778.661484
268.000000	869495.918515
269.000000	882424.874094
270.000000	895569.141981
271.000000	908932.395508
272.000000	922518.368053
273.000000	936330.853952
274.000000	950373.708510
275.000000	964650.849884
276.000000	979166.258067
277.000000	993923.976957
278.000000	1008928.113736
279.000000	1024182.840739
280.000000	1039692.394449
281.000000	1055461.077531
282.000000	1071493.258437
283.000000	1087793.372179
284.000000	1104365.920792
285.000000	1121215.474150
286.000000	1138346.669487
287.000000	1155764.212937
288.000000	1173472.879244
289.000000	1191477.512354
290.000000	1209783.025506
291.000000	1228394.402277
292.000000	1247316.695517
293.000000	1266555.029224
294.000000	1286114.597591
295.000000	1306000.665674
296.000000	1326218.569366
297.000000	1346773.715740
298.000000	1367671.582701
299.000000	1388917.719637
300.000000	1410517.746616
301.000000	1432477.355206
302.000000	1454802.307574
303.000000	1477498.436718
304.000000	1500571.646218
305.000000	1524027.910094
306.000000	1547873.272026
307.000000	1572113.845621
308.000000	1596755.813097
309.000000	1621805.425896
310.000000	1647269.002812
311.000000	1673152.930882
312.000000	1699463.662924
313.000000	1726207.718149
314.000000	1753391.680510
315.000000	1781022.198323
316.000000	1809105.982449
317.000000	1837649.806068
318.000000	1866660.502656
319.000000	1896144.965435
320.000000	1926110.145197
321.000000	1956563.049660
322.000000	1987510.741103
323.000000	2018960.334974
324.000000	2050918.998627
325.000000	2083393.948099
326.000000	2116392.447586
327.000000	2149921.806352
328.000000	2183989.376597
329.000000	2218602.551541
330.000000	2253768.762237
331.000000	2289495.475469
332.000000	2325790.190864
333.000000	2362660.437870
334.000000	2400113.772834
335.000000	2438157.775760
336.000000	2476800.047048
337.000000	2516048.204048
338.000000	2555909.877354
339.000000	2596392.707102
340.000000	2637504.339090
341.000000	2679252.420710
342.000000	2721644.596287
343.000000	2764688.503689
344.000000	2808391.768517
345.000000	2852762.000177
346.000000	2897806.787021
347.000000	2943533.690447
348.000000	2989950.240776
349.000000	3037063.930761
350.000000	3084882.210849
351.000000	3133412.482627
352.000000	3182662.093494
353.000000	3232638.329899
354.000000	3283348.411754
355.000000	3334799.484771
356.000000	3386998.614915
357.000000	3439952.780841
358.000000	3493668.866645
359.000000	3548153.655125
360.000000	3603413.819703
361.000000	3659455.917054
362.000000	3716286.379391
363.000000	3773911.505798
364.000000	3832337.454583
365.000000	3891570.234377
366.000000	3951615.695783
367.000000	4012479.522302
368.000000	4074167.221481
369.000000	4136684.115402
370.000000	4200035.331794
371.000000	4264225.793868
372.000000	4329260.210699
373.000000	4395143.067699
374.000000	4461878.615553
375.000000	4529470.861124
376.000000	4597923.555590
377.000000	4667240.184948
378.000000	4737423.958491
379.000000	4808477.797962
380.000000	4880404.326281
381.000000	4953205.856609
382.000000	5026884.380240
383.000000	5101441.555339
384.000000	5176878.695020
385.000000	5253196.755207
386.000000	5330396.322762
387.000000	5408477.603008
388.000000	5487440.407561
389.000000	5567284.140927
390.000000	5648007.789207
391.000000	5729609.905539
392.000000	5812088.598518
393.000000	5895441.517775
394.000000	5979665.841571
395.000000	6064758.262897
396.000000	6150714.975447
397.000000	6237531.660410
398.000000	6325203.471924
399.000000	6413725.023405
400.000000	6503090.372385
401.000000	6593293.006526
402.000000	6684325.828470
403.000000	6776181.140891
404.000000	6868850.631212
405.000000	6962325.355528
406.000000	7056595.723654
407.000000	7151651.481932
408.000000	7247481.697214
409.000000	7344074.739835
410.000000	7441418.266304
411.000000	7539499.201200
412.000000	7638303.719503
413.000000	7737817.227320
414.000000	7838024.342617
415.000000	7938908.875407
416.000000	8040453.806729
417.000000	8142641.267840
418.000000	8245452.517383
419.000000	8348867.918960
420.000000	8452866.916205
421.000000	8557428.008841
422.000000	8662528.726159
423.000000	8768145.599179
424.000000	8874254.133073
425.000000	8980828.776492
426.000000	9087842.890419
427.000000	9195268.715460
428.000000	9303077.336738
429.000000	9411238.647922
430.000000	9519721.312354
431.000000	9628492.723381
432.000000	9737518.960916
433.000000	9846764.747442
434.000000	9956193.400388
435.000000	10065766.782150
436.000000	10175445.247974
437.000000	10285187.590164
438.000000	10394950.980403
439.000000	10504690.908056
440.000000	10614361.115263
441.000000	10723913.529673
442.000000	10833298.192454
443.000000	10942463.183746
444.000000	11051354.543647
445.000000	11159916.189904
446.000000	11268089.832045
447.000000	11375814.880401
448.000000	11483028.352702
449.000000	11589664.775822
450.000000	11695656.083906
451.000000	11800931.512351
452.000000	11905417.488321
453.000000	12009037.518020
454.000000	12111712.069361
455.000000	12213358.452572
456.000000	12313890.697568
457.000000	12413219.428623
458.000000	12511251.737300
459.000000	12607891.054059
460.000000	12703037.018528
461.000000	12796585.350341
462.000000	12888427.720964
463.000000	12978451.626676
464.000000	13066540.265724
465.000000	13152572.419157
466.000000	13236422.338421
467.000000	13317959.640085
468.000000	13397049.210632
469.000000	13473551.123650
470.000000	13547320.570121
471.000000	13618207.807309
472.000000	13686058.125922
473.000000	13750711.841907
474.000000	13812004.314298
475.000000	13869765.993202
476.000000	13923822.503108
477.000000	13973994.764556
478.000000	14020099.160514
479.000000	14061947.749920
480.000000	14099348.536358
481.000000	14132105.795971
482.000000	14160020.469217
483.000000	14182890.624949
484.000000	14200511.999157
485.000000	14212678.617104
486.000000	14219183.502236
487.000000	14219819.478012
488.000000	14214380.067309
489.000000	14202660.493256
490.000000	14184458.784815
491.000000	14159576.989735
492.000000	14127822.494689
493.000000	14089009.453008
494.000000	14042960.317655
495.000000	13989507.472897
496.000000	13928494.960505
497.000000	13859780.288612
498.000000	13783236.311517
499.000000	13698753.165114
500.000000	13606240.238335
501.000000	13505628.158801
502.000000	13396870.767265
503.000000	13279947.051325
504.000000	13154863.007243
505.000000	13021653.395065
506.000000	12880383.350181
507.000000	12731149.813419
508.000000	12574082.740191
509.000000	12409346.050733
510.000000	12237138.283277
511.000000	12057692.915799
512.000000	11871278.324334
513.000000	11678197.352882
514.000000	11478786.473883
515.000000	11273414.527070
516.000000	11062481.032555
517.000000	10846414.083639
518.000000	10625667.833567
519.000000	10400719.600820
520.000000	10172066.628749
521.000000	9940222.542169
522.000000	9705713.553860
523.000000	9469074.480344
524.000000	9230844.632182
525.000000	8991563.647409
526.000000	8751767.339244
527.000000	8511983.628087
528.000000	8272728.626044
529.000000	8034502.938096
530.000000	7797788.236421
531.000000	7563044.158841
532.000000	7330705.571631
533.000000	7101180.227714
534.000000	6874846.842320
535.000000	6652053.594580
536.000000	6433117.058320
537.000000	6218321.551950
538.000000	6007918.889985
539.000000	5802128.513454
540.000000	5601137.967406
541.000000	5405103.691405
542.000000	5214152.084200
543.000000	5028380.802977
544.000000	4847860.255726
545.000000	4672635.246498
546.000000	4502726.734798
547.000000	4338133.671724
548.000000	4178834.879175
549.000000	4024790.941188
550.000000	3875946.080220
551.000000	3732229.994960
552.000000	3593559.639742
553.000000	3459840.929463
554.000000	3330970.357362
555.000000	3206836.515988
556.000000	3087321.515054
557.000000	2972302.292041
558.000000	2861651.814072
559.000000	2755240.171026
560.000000	2652935.562045
561.000000	2554605.178983
562.000000	2460115.990183
563.000000	2369335.430864
564.000000	2282132.004539
565.000000	2198375.802624
566.000000	2117938.947552
567.000000	2040695.966338
568.000000	1966524.100058
569.000000	1895303.556413
570.000000	1826917.709974
571.000000	1761253.256428
572.000000	1698200.325819
573.000000	1637652.559325
574.000000	1579507.157338
575.000000	1523664.890697
576.000000	1470030.106952
577.000000	1418510.688177
578.000000	1369018.033659
579.000000	1321466.971591
580.000000	1275775.713214
581.000000	1231865.780628
582.000000	1189661.890100
583.000000	1149091.895995
584.000000	1110086.676472
585.000000	1072580.034981
586.000000	1036508.613462
587.000000	1001811.764666
588.000000	968431.493789
589.000000	936312.302450
590.000000	905401.140443
591.000000	875647.273330
592.000000	847002.202091
593.000000	819419.565645
594.000000	792855.045876
595.000000	767266.287221
596.000000	742612.801140
597.000000	718855.892549
598.000000	695958.571897
599.000000	673885.485539
600.000000	652602.833982
601.000000	632078.309248
602.000000	612281.020414
603.000000	593181.432430
604.000000	574751.302390
605.000000	556963.622134
606.000000	539792.556651
607.000000	523213.396274
608.000000	507202.498874
609.000000	491737.247041
610.000000	476795.993474
611.000000	462358.024185
612.000000	448403.511495
613.000000	434913.470110
614.000000	421869.727880
615.000000	409254.878441
616.000000	397052.255881
617.000000	385245.894585
618.000000	373820.500963
619.000000	362761.419765
620.000000	352054.610053
621.000000	341686.610433
622.000000	331644.524501
623.000000	321915.986800
624.000000	312489.141840
625.000000	303352.620806
626.000000	294495.521241
627.000000	285907.388834
628.000000	277578.193492
629.000000	269498.313933
630.000000	261658.512255
631.000000	254049.931510
632.000000	246664.063646
633.000000	239492.749688
634.000000	232528.155875
635.000000	225762.760385
636.000000	219189.337116
637.000000	212800.947422
638.000000	206590.922401
639.000000	200552.864290
640.000000	194680.617200
641.000000	188968.267816
642.000000	183410.137308
643.000000	178000.762121
644.000000	172734.892710
645.000000	167607.475846
646.000000	162613.660711
647.000000	157748.785527
648.000000	153008.353063
649.000000	148388.034006
650.000000	143883.636431
651.000000	139491.093200
652.000000	135206.710560
653.000000	131026.501261
654.000000	126946.249362
655.000000	122962.722931
656.000000	119074.179351
657.000000	115275.024641
658.000000	111563.401315
659.000000	107936.920047
660.000000	104390.048954
661.000000	100922.935215
662.000000	97531.119081
663.000000	94210.941565
664.000000	90962.518109
665.000000	87780.217653
666.000000	84663.709124
667.000000	81608.857844
668.000000	78614.865659
669.000000	75677.215294
670.000000	72795.762411
671.000000	69965.863248
672.000000	67187.339318
673.000000	64455.709020
674.000000	61770.553446
675.000000	59127.579528
676.000000	56526.260461
677.000000	53962.436357
678.000000	51435.047214
679.000000	48940.905301
680.000000	46477.173378
681.000000	44042.336608
682.000000	41633.062408
683.000000	39246.540044
684.000000	36880.661029
685.000000	34532.815133
686.000000	32199.918864
687.000000	29879.584979
688.000000	27569.508783
689.000000	25267.193936
690.000000	22970.301084
691.000000	20676.918010
692.000000	18385.300197
693.000000	16093.955918
694.000000	13801.806468
695.000000	11508.208911
696.000000	9214.319849
697.000000	6985.936755
698.000000	4429.853835
699.000000	2416.127629
700.000000	-0.000000
