# Profil de ElecX au temps 1.900999999999955e-11 
# simu : /Volumes/MERCURE/JOBS/Zeq1_tanh_50mic_7p5e19_B0_20ps/GNU/ElecX@y-c.set
# col 0 : abscisse (um)
# col 1 : ElecX (V/m)
0.00000000e+00	0.00000000e+00
1.00000000e+00	6.24092310e+03
2.00000000e+00	7.52253262e+03
3.00000000e+00	1.10317331e+04
4.00000000e+00	1.61655363e+04
5.00000000e+00	2.00672738e+04
6.00000000e+00	2.40468970e+04
7.00000000e+00	2.80553083e+04
8.00000000e+00	3.20618901e+04
9.00000000e+00	3.60669235e+04
1.00000000e+01	4.00738250e+04
1.10000000e+01	4.40798319e+04
1.20000000e+01	4.80859050e+04
1.30000000e+01	5.20885427e+04
1.40000000e+01	5.60961510e+04
1.50000000e+01	6.00978509e+04
1.60000000e+01	6.41044339e+04
1.70000000e+01	6.81048553e+04
1.80000000e+01	7.21094918e+04
1.90000000e+01	7.61122735e+04
2.00000000e+01	8.01128803e+04
2.10000000e+01	8.41150708e+04
2.20000000e+01	8.81164471e+04
2.30000000e+01	9.21161261e+04
2.40000000e+01	9.61157700e+04
2.50000000e+01	1.00115096e+05
2.60000000e+01	1.04113846e+05
2.70000000e+01	1.08111315e+05
2.80000000e+01	1.12108016e+05
2.90000000e+01	1.16104589e+05
3.00000000e+01	1.20100240e+05
3.10000000e+01	1.24095684e+05
3.20000000e+01	1.28088537e+05
3.30000000e+01	1.32082176e+05
3.40000000e+01	1.36074508e+05
3.50000000e+01	1.40066263e+05
3.60000000e+01	1.44057033e+05
3.70000000e+01	1.48045926e+05
3.80000000e+01	1.52035119e+05
3.90000000e+01	1.56023077e+05
4.00000000e+01	1.60010034e+05
4.10000000e+01	1.63996293e+05
4.20000000e+01	1.67980548e+05
4.30000000e+01	1.71964994e+05
4.40000000e+01	1.75947736e+05
4.50000000e+01	1.79929837e+05
4.60000000e+01	1.83911274e+05
4.70000000e+01	1.87890377e+05
4.80000000e+01	1.91869570e+05
4.90000000e+01	1.95847226e+05
5.00000000e+01	1.99824069e+05
5.10000000e+01	2.03799710e+05
5.20000000e+01	2.07774554e+05
5.30000000e+01	2.11747565e+05
5.40000000e+01	2.15719985e+05
5.50000000e+01	2.19691345e+05
5.60000000e+01	2.23661495e+05
5.70000000e+01	2.27630758e+05
5.80000000e+01	2.31598984e+05
5.90000000e+01	2.35565148e+05
6.00000000e+01	2.39531137e+05
6.10000000e+01	2.43495753e+05
6.20000000e+01	2.47459542e+05
6.30000000e+01	2.51421738e+05
6.40000000e+01	2.55383585e+05
6.50000000e+01	2.59343332e+05
6.60000000e+01	2.63302764e+05
6.70000000e+01	2.67260922e+05
6.80000000e+01	2.71218025e+05
6.90000000e+01	2.75174236e+05
7.00000000e+01	2.79129209e+05
7.10000000e+01	2.83083711e+05
7.20000000e+01	2.87035984e+05
7.30000000e+01	2.90988429e+05
7.40000000e+01	2.94939493e+05
7.50000000e+01	2.98889750e+05
7.60000000e+01	3.02838996e+05
7.70000000e+01	3.06787493e+05
7.80000000e+01	3.10734998e+05
7.90000000e+01	3.14681341e+05
8.00000000e+01	3.18627451e+05
8.10000000e+01	3.22572334e+05
8.20000000e+01	3.26516796e+05
8.30000000e+01	3.30460337e+05
8.40000000e+01	3.34403232e+05
8.50000000e+01	3.38345912e+05
8.60000000e+01	3.42286979e+05
8.70000000e+01	3.46228179e+05
8.80000000e+01	3.50168854e+05
8.90000000e+01	3.54108854e+05
9.00000000e+01	3.58048532e+05
9.10000000e+01	3.61987953e+05
9.20000000e+01	3.65926466e+05
9.30000000e+01	3.69865668e+05
9.40000000e+01	3.73803692e+05
9.50000000e+01	3.77741917e+05
9.60000000e+01	3.81680041e+05
9.70000000e+01	3.85618086e+05
9.80000000e+01	3.89556142e+05
9.90000000e+01	3.93494373e+05
1.00000000e+02	3.97432504e+05
1.01000000e+02	4.01371185e+05
1.02000000e+02	4.05309629e+05
1.03000000e+02	4.09249319e+05
1.04000000e+02	4.13188210e+05
1.05000000e+02	4.17128673e+05
1.06000000e+02	4.21069110e+05
1.07000000e+02	4.25010523e+05
1.08000000e+02	4.28952820e+05
1.09000000e+02	4.32895479e+05
1.10000000e+02	4.36839721e+05
1.11000000e+02	4.40784580e+05
1.12000000e+02	4.44730543e+05
1.13000000e+02	4.48678216e+05
1.14000000e+02	4.52626715e+05
1.15000000e+02	4.56576975e+05
1.16000000e+02	4.60528763e+05
1.17000000e+02	4.64482209e+05
1.18000000e+02	4.68437297e+05
1.19000000e+02	4.72394340e+05
1.20000000e+02	4.76353747e+05
1.21000000e+02	4.80314565e+05
1.22000000e+02	4.84278504e+05
1.23000000e+02	4.88244544e+05
1.24000000e+02	4.92213092e+05
1.25000000e+02	4.96184206e+05
1.26000000e+02	5.00158405e+05
1.27000000e+02	5.04135578e+05
1.28000000e+02	5.08115155e+05
1.29000000e+02	5.12098572e+05
1.30000000e+02	5.16085522e+05
1.31000000e+02	5.20076205e+05
1.32000000e+02	5.24070191e+05
1.33000000e+02	5.28068372e+05
1.34000000e+02	5.32067962e+05
1.35000000e+02	5.36076095e+05
1.36000000e+02	5.40087863e+05
1.37000000e+02	5.44103170e+05
1.38000000e+02	5.48122979e+05
1.39000000e+02	5.52147461e+05
1.40000000e+02	5.56177995e+05
1.41000000e+02	5.60213602e+05
1.42000000e+02	5.64254938e+05
1.43000000e+02	5.68302356e+05
1.44000000e+02	5.72355273e+05
1.45000000e+02	5.76414904e+05
1.46000000e+02	5.80480653e+05
1.47000000e+02	5.84553113e+05
1.48000000e+02	5.88632669e+05
1.49000000e+02	5.92718785e+05
1.50000000e+02	5.96812837e+05
1.51000000e+02	6.00914201e+05
1.52000000e+02	6.05023314e+05
1.53000000e+02	6.09140910e+05
1.54000000e+02	6.13266315e+05
1.55000000e+02	6.17400489e+05
1.56000000e+02	6.21543652e+05
1.57000000e+02	6.25695558e+05
1.58000000e+02	6.29857179e+05
1.59000000e+02	6.34028531e+05
1.60000000e+02	6.38209090e+05
1.61000000e+02	6.42400496e+05
1.62000000e+02	6.46602263e+05
1.63000000e+02	6.50814995e+05
1.64000000e+02	6.55038166e+05
1.65000000e+02	6.59273265e+05
1.66000000e+02	6.63519991e+05
1.67000000e+02	6.67778533e+05
1.68000000e+02	6.72049492e+05
1.69000000e+02	6.76332951e+05
1.70000000e+02	6.80629438e+05
1.71000000e+02	6.84939148e+05
1.72000000e+02	6.89262646e+05
1.73000000e+02	6.93599766e+05
1.74000000e+02	6.97951513e+05
1.75000000e+02	7.02317628e+05
1.76000000e+02	7.06698831e+05
1.77000000e+02	7.11095562e+05
1.78000000e+02	7.15506259e+05
1.79000000e+02	7.19935957e+05
1.80000000e+02	7.24380812e+05
1.81000000e+02	7.28842549e+05
1.82000000e+02	7.33321292e+05
1.83000000e+02	7.37817680e+05
1.84000000e+02	7.42331914e+05
1.85000000e+02	7.46864834e+05
1.86000000e+02	7.51416041e+05
1.87000000e+02	7.55986877e+05
1.88000000e+02	7.60576946e+05
1.89000000e+02	7.65187121e+05
1.90000000e+02	7.69817848e+05
1.91000000e+02	7.74469138e+05
1.92000000e+02	7.79141809e+05
1.93000000e+02	7.83836233e+05
1.94000000e+02	7.88552758e+05
1.95000000e+02	7.93291699e+05
1.96000000e+02	7.98053863e+05
1.97000000e+02	8.02839427e+05
1.98000000e+02	8.07648952e+05
1.99000000e+02	8.12482703e+05
2.00000000e+02	8.17341490e+05
2.01000000e+02	8.22225539e+05
2.02000000e+02	8.27135397e+05
2.03000000e+02	8.32071543e+05
2.04000000e+02	8.37034346e+05
2.05000000e+02	8.42024523e+05
2.06000000e+02	8.47042418e+05
2.07000000e+02	8.52088517e+05
2.08000000e+02	8.57163360e+05
2.09000000e+02	8.62267549e+05
2.10000000e+02	8.67401419e+05
2.11000000e+02	8.72565530e+05
2.12000000e+02	8.77760599e+05
2.13000000e+02	8.82986792e+05
2.14000000e+02	8.88245046e+05
2.15000000e+02	8.93535592e+05
2.16000000e+02	8.98859323e+05
2.17000000e+02	9.04216228e+05
2.18000000e+02	9.09607240e+05
2.19000000e+02	9.15032945e+05
2.20000000e+02	9.20493598e+05
2.21000000e+02	9.25990126e+05
2.22000000e+02	9.31522929e+05
2.23000000e+02	9.37092444e+05
2.24000000e+02	9.42699569e+05
2.25000000e+02	9.48344659e+05
2.26000000e+02	9.54028227e+05
2.27000000e+02	9.59751113e+05
2.28000000e+02	9.65513770e+05
2.29000000e+02	9.71316847e+05
2.30000000e+02	9.77160805e+05
2.31000000e+02	9.83046480e+05
2.32000000e+02	9.88974365e+05
2.33000000e+02	9.94945025e+05
2.34000000e+02	1.00095931e+06
2.35000000e+02	1.00701759e+06
2.36000000e+02	1.01312053e+06
2.37000000e+02	1.01926894e+06
2.38000000e+02	1.02546325e+06
2.39000000e+02	1.03170434e+06
2.40000000e+02	1.03799267e+06
2.41000000e+02	1.04432903e+06
2.42000000e+02	1.05071399e+06
2.43000000e+02	1.05714833e+06
2.44000000e+02	1.06363259e+06
2.45000000e+02	1.07016750e+06
2.46000000e+02	1.07675378e+06
2.47000000e+02	1.08339208e+06
2.48000000e+02	1.09008307e+06
2.49000000e+02	1.09682747e+06
2.50000000e+02	1.10362602e+06
2.51000000e+02	1.11047942e+06
2.52000000e+02	1.11738835e+06
2.53000000e+02	1.12435353e+06
2.54000000e+02	1.13137570e+06
2.55000000e+02	1.13845562e+06
2.56000000e+02	1.14559398e+06
2.57000000e+02	1.15279153e+06
2.58000000e+02	1.16004905e+06
2.59000000e+02	1.16736724e+06
2.60000000e+02	1.17474687e+06
2.61000000e+02	1.18218876e+06
2.62000000e+02	1.18969361e+06
2.63000000e+02	1.19726224e+06
2.64000000e+02	1.20489538e+06
2.65000000e+02	1.21259387e+06
2.66000000e+02	1.22035849e+06
2.67000000e+02	1.22819003e+06
2.68000000e+02	1.23608927e+06
2.69000000e+02	1.24405706e+06
2.70000000e+02	1.25209418e+06
2.71000000e+02	1.26020148e+06
2.72000000e+02	1.26837976e+06
2.73000000e+02	1.27662987e+06
2.74000000e+02	1.28495266e+06
2.75000000e+02	1.29334896e+06
2.76000000e+02	1.30181962e+06
2.77000000e+02	1.31036551e+06
2.78000000e+02	1.31898750e+06
2.79000000e+02	1.32768645e+06
2.80000000e+02	1.33646324e+06
2.81000000e+02	1.34531876e+06
2.82000000e+02	1.35425390e+06
2.83000000e+02	1.36326956e+06
2.84000000e+02	1.37236664e+06
2.85000000e+02	1.38154606e+06
2.86000000e+02	1.39080873e+06
2.87000000e+02	1.40015557e+06
2.88000000e+02	1.40958753e+06
2.89000000e+02	1.41910553e+06
2.90000000e+02	1.42871053e+06
2.91000000e+02	1.43840346e+06
2.92000000e+02	1.44818531e+06
2.93000000e+02	1.45805702e+06
2.94000000e+02	1.46801957e+06
2.95000000e+02	1.47807394e+06
2.96000000e+02	1.48822111e+06
2.97000000e+02	1.49846208e+06
2.98000000e+02	1.50879785e+06
2.99000000e+02	1.51922941e+06
3.00000000e+02	1.52975779e+06
3.01000000e+02	1.54038400e+06
3.02000000e+02	1.55110907e+06
3.03000000e+02	1.56193401e+06
3.04000000e+02	1.57285989e+06
3.05000000e+02	1.58388773e+06
3.06000000e+02	1.59501858e+06
3.07000000e+02	1.60625351e+06
3.08000000e+02	1.61759357e+06
3.09000000e+02	1.62903983e+06
3.10000000e+02	1.64059336e+06
3.11000000e+02	1.65225525e+06
3.12000000e+02	1.66402657e+06
3.13000000e+02	1.67590841e+06
3.14000000e+02	1.68790187e+06
3.15000000e+02	1.70000804e+06
3.16000000e+02	1.71222803e+06
3.17000000e+02	1.72456295e+06
3.18000000e+02	1.73701391e+06
3.19000000e+02	1.74958202e+06
3.20000000e+02	1.76226841e+06
3.21000000e+02	1.77507420e+06
3.22000000e+02	1.78800050e+06
3.23000000e+02	1.80104846e+06
3.24000000e+02	1.81421921e+06
3.25000000e+02	1.82751387e+06
3.26000000e+02	1.84093359e+06
3.27000000e+02	1.85447950e+06
3.28000000e+02	1.86815275e+06
3.29000000e+02	1.88195446e+06
3.30000000e+02	1.89588580e+06
3.31000000e+02	1.90994789e+06
3.32000000e+02	1.92414188e+06
3.33000000e+02	1.93846890e+06
3.34000000e+02	1.95293011e+06
3.35000000e+02	1.96752663e+06
3.36000000e+02	1.98225960e+06
3.37000000e+02	1.99713016e+06
3.38000000e+02	2.01213944e+06
3.39000000e+02	2.02728856e+06
3.40000000e+02	2.04257866e+06
3.41000000e+02	2.05801084e+06
3.42000000e+02	2.07358622e+06
3.43000000e+02	2.08930591e+06
3.44000000e+02	2.10517102e+06
3.45000000e+02	2.12118263e+06
3.46000000e+02	2.13734184e+06
3.47000000e+02	2.15364972e+06
3.48000000e+02	2.17010735e+06
3.49000000e+02	2.18671578e+06
3.50000000e+02	2.20347608e+06
3.51000000e+02	2.22038927e+06
3.52000000e+02	2.23745639e+06
3.53000000e+02	2.25467845e+06
3.54000000e+02	2.27205645e+06
3.55000000e+02	2.28959140e+06
3.56000000e+02	2.30728425e+06
3.57000000e+02	2.32513597e+06
3.58000000e+02	2.34314750e+06
3.59000000e+02	2.36131977e+06
3.60000000e+02	2.37965369e+06
3.61000000e+02	2.39815013e+06
3.62000000e+02	2.41680997e+06
3.63000000e+02	2.43563406e+06
3.64000000e+02	2.45462323e+06
3.65000000e+02	2.47377827e+06
3.66000000e+02	2.49309996e+06
3.67000000e+02	2.51258907e+06
3.68000000e+02	2.53224632e+06
3.69000000e+02	2.55207241e+06
3.70000000e+02	2.57206803e+06
3.71000000e+02	2.59223381e+06
3.72000000e+02	2.61257038e+06
3.73000000e+02	2.63307832e+06
3.74000000e+02	2.65375819e+06
3.75000000e+02	2.67461052e+06
3.76000000e+02	2.69563580e+06
3.77000000e+02	2.71683448e+06
3.78000000e+02	2.73820698e+06
3.79000000e+02	2.75975370e+06
3.80000000e+02	2.78147497e+06
3.81000000e+02	2.80337111e+06
3.82000000e+02	2.82544238e+06
3.83000000e+02	2.84768902e+06
3.84000000e+02	2.87011122e+06
3.85000000e+02	2.89270911e+06
3.86000000e+02	2.91548281e+06
3.87000000e+02	2.93843237e+06
3.88000000e+02	2.96155780e+06
3.89000000e+02	2.98485908e+06
3.90000000e+02	3.00833612e+06
3.91000000e+02	3.03198880e+06
3.92000000e+02	3.05581694e+06
3.93000000e+02	3.07982031e+06
3.94000000e+02	3.10399865e+06
3.95000000e+02	3.12835162e+06
3.96000000e+02	3.15287886e+06
3.97000000e+02	3.17757992e+06
3.98000000e+02	3.20245433e+06
3.99000000e+02	3.22750155e+06
4.00000000e+02	3.25272099e+06
4.01000000e+02	3.27811201e+06
4.02000000e+02	3.30367391e+06
4.03000000e+02	3.32940593e+06
4.04000000e+02	3.35530727e+06
4.05000000e+02	3.38137704e+06
4.06000000e+02	3.40761434e+06
4.07000000e+02	3.43401818e+06
4.08000000e+02	3.46058753e+06
4.09000000e+02	3.48732128e+06
4.10000000e+02	3.51421830e+06
4.11000000e+02	3.54127736e+06
4.12000000e+02	3.56849721e+06
4.13000000e+02	3.59587652e+06
4.14000000e+02	3.62341391e+06
4.15000000e+02	3.65110794e+06
4.16000000e+02	3.67895713e+06
4.17000000e+02	3.70695993e+06
4.18000000e+02	3.73511472e+06
4.19000000e+02	3.76341985e+06
4.20000000e+02	3.79187361e+06
4.21000000e+02	3.82047422e+06
4.22000000e+02	3.84921986e+06
4.23000000e+02	3.87810866e+06
4.24000000e+02	3.90713868e+06
4.25000000e+02	3.93630794e+06
4.26000000e+02	3.96561441e+06
4.27000000e+02	3.99505600e+06
4.28000000e+02	4.02463059e+06
4.29000000e+02	4.05433598e+06
4.30000000e+02	4.08416995e+06
4.31000000e+02	4.11413020e+06
4.32000000e+02	4.14421443e+06
4.33000000e+02	4.17442024e+06
4.34000000e+02	4.20474522e+06
4.35000000e+02	4.23518689e+06
4.36000000e+02	4.26574276e+06
4.37000000e+02	4.29641026e+06
4.38000000e+02	4.32718678e+06
4.39000000e+02	4.35806968e+06
4.40000000e+02	4.38905627e+06
4.41000000e+02	4.42014381e+06
4.42000000e+02	4.45132952e+06
4.43000000e+02	4.48261058e+06
4.44000000e+02	4.51398411e+06
4.45000000e+02	4.54544719e+06
4.46000000e+02	4.57699687e+06
4.47000000e+02	4.60863012e+06
4.48000000e+02	4.64034387e+06
4.49000000e+02	4.67213503e+06
4.50000000e+02	4.70400040e+06
4.51000000e+02	4.73593678e+06
4.52000000e+02	4.76794087e+06
4.53000000e+02	4.80000932e+06
4.54000000e+02	4.83213874e+06
4.55000000e+02	4.86432563e+06
4.56000000e+02	4.89656644e+06
4.57000000e+02	4.92885755e+06
4.58000000e+02	4.96119524e+06
4.59000000e+02	4.99357572e+06
4.60000000e+02	5.02599509e+06
4.61000000e+02	5.05844935e+06
4.62000000e+02	5.09093442e+06
4.63000000e+02	5.12344607e+06
4.64000000e+02	5.15597996e+06
4.65000000e+02	5.18853164e+06
4.66000000e+02	5.22109649e+06
4.67000000e+02	5.25366976e+06
4.68000000e+02	5.28624653e+06
4.69000000e+02	5.31882172e+06
4.70000000e+02	5.35139005e+06
4.71000000e+02	5.38394608e+06
4.72000000e+02	5.41648411e+06
4.73000000e+02	5.44899829e+06
4.74000000e+02	5.48148247e+06
4.75000000e+02	5.51393029e+06
4.76000000e+02	5.54633512e+06
4.77000000e+02	5.57869007e+06
4.78000000e+02	5.61098791e+06
4.79000000e+02	5.64322116e+06
4.80000000e+02	5.67538196e+06
4.81000000e+02	5.70746215e+06
4.82000000e+02	5.73945317e+06
4.83000000e+02	5.77134612e+06
4.84000000e+02	5.80313167e+06
4.85000000e+02	5.83480010e+06
4.86000000e+02	5.86634123e+06
4.87000000e+02	5.89774445e+06
4.88000000e+02	5.92899868e+06
4.89000000e+02	5.96009231e+06
4.90000000e+02	5.99101328e+06
4.91000000e+02	6.02174895e+06
4.92000000e+02	6.05228616e+06
4.93000000e+02	6.08261118e+06
4.94000000e+02	6.11270970e+06
4.95000000e+02	6.14256681e+06
4.96000000e+02	6.17216698e+06
4.97000000e+02	6.20149406e+06
4.98000000e+02	6.23053124e+06
4.99000000e+02	6.25926106e+06
5.00000000e+02	6.28766540e+06
5.01000000e+02	6.31572544e+06
5.02000000e+02	6.34342167e+06
5.03000000e+02	6.37073391e+06
5.04000000e+02	6.39764124e+06
5.05000000e+02	6.42412205e+06
5.06000000e+02	6.45015404e+06
5.07000000e+02	6.47571417e+06
5.08000000e+02	6.50077871e+06
5.09000000e+02	6.52532325e+06
5.10000000e+02	6.54932267e+06
5.11000000e+02	6.57275120e+06
5.12000000e+02	6.59558240e+06
5.13000000e+02	6.61778919e+06
5.14000000e+02	6.63934390e+06
5.15000000e+02	6.66021825e+06
5.16000000e+02	6.68038342e+06
5.17000000e+02	6.69981010e+06
5.18000000e+02	6.71846846e+06
5.19000000e+02	6.73632827e+06
5.20000000e+02	6.75335894e+06
5.21000000e+02	6.76952952e+06
5.22000000e+02	6.78480883e+06
5.23000000e+02	6.79916549e+06
5.24000000e+02	6.81256798e+06
5.25000000e+02	6.82498474e+06
5.26000000e+02	6.83638425e+06
5.27000000e+02	6.84673510e+06
5.28000000e+02	6.85600609e+06
5.29000000e+02	6.86416630e+06
5.30000000e+02	6.87118522e+06
5.31000000e+02	6.87703286e+06
5.32000000e+02	6.88167980e+06
5.33000000e+02	6.88509737e+06
5.34000000e+02	6.88725768e+06
5.35000000e+02	6.88813381e+06
5.36000000e+02	6.88769989e+06
5.37000000e+02	6.88593120e+06
5.38000000e+02	6.88280433e+06
5.39000000e+02	6.87829724e+06
5.40000000e+02	6.87238942e+06
5.41000000e+02	6.86506196e+06
5.42000000e+02	6.85629772e+06
5.43000000e+02	6.84608135e+06
5.44000000e+02	6.83439947e+06
5.45000000e+02	6.82124072e+06
5.46000000e+02	6.80659585e+06
5.47000000e+02	6.79045782e+06
5.48000000e+02	6.77282185e+06
5.49000000e+02	6.75368551e+06
5.50000000e+02	6.73304876e+06
5.51000000e+02	6.71091397e+06
5.52000000e+02	6.68728602e+06
5.53000000e+02	6.66217223e+06
5.54000000e+02	6.63558247e+06
5.55000000e+02	6.60752909e+06
5.56000000e+02	6.57802691e+06
5.57000000e+02	6.54709324e+06
5.58000000e+02	6.51474781e+06
5.59000000e+02	6.48101269e+06
5.60000000e+02	6.44591231e+06
5.61000000e+02	6.40947331e+06
5.62000000e+02	6.37172448e+06
5.63000000e+02	6.33269669e+06
5.64000000e+02	6.29242274e+06
5.65000000e+02	6.25093729e+06
5.66000000e+02	6.20827671e+06
5.67000000e+02	6.16447895e+06
5.68000000e+02	6.11958344e+06
5.69000000e+02	6.07363090e+06
5.70000000e+02	6.02666322e+06
5.71000000e+02	5.97872332e+06
5.72000000e+02	5.92985498e+06
5.73000000e+02	5.88010271e+06
5.74000000e+02	5.82951157e+06
5.75000000e+02	5.77812705e+06
5.76000000e+02	5.72599491e+06
5.77000000e+02	5.67316102e+06
5.78000000e+02	5.61967124e+06
5.79000000e+02	5.56557127e+06
5.80000000e+02	5.51090654e+06
5.81000000e+02	5.45572205e+06
5.82000000e+02	5.40006228e+06
5.83000000e+02	5.34397105e+06
5.84000000e+02	5.28749147e+06
5.85000000e+02	5.23066577e+06
5.86000000e+02	5.17353525e+06
5.87000000e+02	5.11614023e+06
5.88000000e+02	5.05851991e+06
5.89000000e+02	5.00071235e+06
5.90000000e+02	4.94275441e+06
5.91000000e+02	4.88468169e+06
5.92000000e+02	4.82652851e+06
5.93000000e+02	4.76832783e+06
5.94000000e+02	4.71011129e+06
5.95000000e+02	4.65190914e+06
5.96000000e+02	4.59375026e+06
5.97000000e+02	4.53566212e+06
5.98000000e+02	4.47767082e+06
5.99000000e+02	4.41980107e+06
6.00000000e+02	4.36207619e+06
6.01000000e+02	4.30451816e+06
6.02000000e+02	4.24714762e+06
6.03000000e+02	4.18998388e+06
6.04000000e+02	4.13304498e+06
6.05000000e+02	4.07634767e+06
6.06000000e+02	4.01990750e+06
6.07000000e+02	3.96373881e+06
6.08000000e+02	3.90785478e+06
6.09000000e+02	3.85226748e+06
6.10000000e+02	3.79698787e+06
6.11000000e+02	3.74202589e+06
6.12000000e+02	3.68739048e+06
6.13000000e+02	3.63308960e+06
6.14000000e+02	3.57913032e+06
6.15000000e+02	3.52551880e+06
6.16000000e+02	3.47226039e+06
6.17000000e+02	3.41935962e+06
6.18000000e+02	3.36682027e+06
6.19000000e+02	3.31464538e+06
6.20000000e+02	3.26283732e+06
6.21000000e+02	3.21139781e+06
6.22000000e+02	3.16032799e+06
6.23000000e+02	3.10962839e+06
6.24000000e+02	3.05929906e+06
6.25000000e+02	3.00933951e+06
6.26000000e+02	2.95974882e+06
6.27000000e+02	2.91052556e+06
6.28000000e+02	2.86166794e+06
6.29000000e+02	2.81317374e+06
6.30000000e+02	2.76504037e+06
6.31000000e+02	2.71726493e+06
6.32000000e+02	2.66984420e+06
6.33000000e+02	2.62277475e+06
6.34000000e+02	2.57605288e+06
6.35000000e+02	2.52967467e+06
6.36000000e+02	2.48363598e+06
6.37000000e+02	2.43793245e+06
6.38000000e+02	2.39255953e+06
6.39000000e+02	2.34751251e+06
6.40000000e+02	2.30278650e+06
6.41000000e+02	2.25837650e+06
6.42000000e+02	2.21427739e+06
6.43000000e+02	2.17048393e+06
6.44000000e+02	2.12699081e+06
6.45000000e+02	2.08379265e+06
6.46000000e+02	2.04088402e+06
6.47000000e+02	1.99825941e+06
6.48000000e+02	1.95591323e+06
6.49000000e+02	1.91383989e+06
6.50000000e+02	1.87203374e+06
6.51000000e+02	1.83048913e+06
6.52000000e+02	1.78920034e+06
6.53000000e+02	1.74816170e+06
6.54000000e+02	1.70736747e+06
6.55000000e+02	1.66681198e+06
6.56000000e+02	1.62648949e+06
6.57000000e+02	1.58639432e+06
6.58000000e+02	1.54652079e+06
6.59000000e+02	1.50686318e+06
