# Profil de ElecX au temps 1.800999999999969e-11 
# simu : /Volumes/MERCURE/JOBS/Zeq1_tanh_50mic_7p5e19_B0_20ps/GNU/ElecX@y-c.set
# col 0 : abscisse (um)
# col 1 : ElecX (V/m)
0.00000000e+00	0.00000000e+00
1.00000000e+00	6.22812605e+03
2.00000000e+00	7.75128848e+03
3.00000000e+00	1.13600616e+04
4.00000000e+00	1.65421812e+04
5.00000000e+00	2.05473937e+04
6.00000000e+00	2.46252386e+04
7.00000000e+00	2.87295678e+04
8.00000000e+00	3.28322435e+04
9.00000000e+00	3.69334069e+04
1.00000000e+01	4.10361130e+04
1.10000000e+01	4.51378296e+04
1.20000000e+01	4.92394389e+04
1.30000000e+01	5.33377537e+04
1.40000000e+01	5.74403058e+04
1.50000000e+01	6.15373440e+04
1.60000000e+01	6.56384948e+04
1.70000000e+01	6.97338668e+04
1.80000000e+01	7.38327333e+04
1.90000000e+01	7.79296197e+04
2.00000000e+01	8.20242953e+04
2.10000000e+01	8.61200175e+04
2.20000000e+01	9.02146750e+04
2.30000000e+01	9.43074612e+04
2.40000000e+01	9.83998301e+04
2.50000000e+01	1.02491552e+05
2.60000000e+01	1.06582322e+05
2.70000000e+01	1.10671553e+05
2.80000000e+01	1.14759658e+05
2.90000000e+01	1.18847182e+05
3.00000000e+01	1.22933421e+05
3.10000000e+01	1.27019020e+05
3.20000000e+01	1.31101808e+05
3.30000000e+01	1.35184790e+05
3.40000000e+01	1.39266113e+05
3.50000000e+01	1.43346323e+05
3.60000000e+01	1.47425165e+05
3.70000000e+01	1.51501758e+05
3.80000000e+01	1.55578058e+05
3.90000000e+01	1.59652649e+05
4.00000000e+01	1.63725796e+05
4.10000000e+01	1.67797654e+05
4.20000000e+01	1.71867179e+05
4.30000000e+01	1.75936178e+05
4.40000000e+01	1.80003107e+05
4.50000000e+01	1.84068723e+05
4.60000000e+01	1.88133124e+05
4.70000000e+01	1.92194787e+05
4.80000000e+01	1.96255850e+05
4.90000000e+01	2.00314834e+05
5.00000000e+01	2.04372379e+05
5.10000000e+01	2.08428198e+05
5.20000000e+01	2.12482559e+05
5.30000000e+01	2.16534514e+05
5.40000000e+01	2.20585285e+05
5.50000000e+01	2.24634305e+05
5.60000000e+01	2.28681560e+05
5.70000000e+01	2.32727178e+05
5.80000000e+01	2.36771180e+05
5.90000000e+01	2.40812522e+05
6.00000000e+01	2.44852978e+05
6.10000000e+01	2.48891387e+05
6.20000000e+01	2.52928225e+05
6.30000000e+01	2.56962979e+05
6.40000000e+01	2.60996465e+05
6.50000000e+01	2.65027353e+05
6.60000000e+01	2.69057134e+05
6.70000000e+01	2.73084960e+05
6.80000000e+01	2.77111001e+05
6.90000000e+01	2.81135427e+05
7.00000000e+01	2.85157958e+05
7.10000000e+01	2.89179150e+05
7.20000000e+01	2.93197594e+05
7.30000000e+01	2.97215313e+05
7.40000000e+01	3.01230941e+05
7.50000000e+01	3.05245039e+05
7.60000000e+01	3.09257357e+05
7.70000000e+01	3.13268119e+05
7.80000000e+01	3.17277264e+05
7.90000000e+01	3.21284354e+05
8.00000000e+01	3.25290467e+05
8.10000000e+01	3.29294671e+05
8.20000000e+01	3.33297488e+05
8.30000000e+01	3.37298771e+05
8.40000000e+01	3.41298555e+05
8.50000000e+01	3.45297221e+05
8.60000000e+01	3.49293722e+05
8.70000000e+01	3.53289335e+05
8.80000000e+01	3.57283704e+05
8.90000000e+01	3.61276573e+05
9.00000000e+01	3.65268303e+05
9.10000000e+01	3.69258898e+05
9.20000000e+01	3.73247916e+05
9.30000000e+01	3.77236546e+05
9.40000000e+01	3.81223397e+05
9.50000000e+01	3.85209507e+05
9.60000000e+01	3.89194638e+05
9.70000000e+01	3.93178916e+05
9.80000000e+01	3.97162294e+05
9.90000000e+01	4.01144955e+05
1.00000000e+02	4.05126781e+05
1.01000000e+02	4.09108109e+05
1.02000000e+02	4.13088485e+05
1.03000000e+02	4.17069070e+05
1.04000000e+02	4.21048118e+05
1.05000000e+02	4.25027742e+05
1.06000000e+02	4.29006498e+05
1.07000000e+02	4.32985261e+05
1.08000000e+02	4.36964026e+05
1.09000000e+02	4.40942254e+05
1.10000000e+02	4.44921097e+05
1.11000000e+02	4.48899647e+05
1.12000000e+02	4.52878383e+05
1.13000000e+02	4.56857792e+05
1.14000000e+02	4.60837214e+05
1.15000000e+02	4.64817272e+05
1.16000000e+02	4.68798036e+05
1.17000000e+02	4.72779368e+05
1.18000000e+02	4.76761410e+05
1.19000000e+02	4.80744613e+05
1.20000000e+02	4.84728835e+05
1.21000000e+02	4.88713827e+05
1.22000000e+02	4.92700510e+05
1.23000000e+02	4.96688556e+05
1.24000000e+02	5.00677917e+05
1.25000000e+02	5.04668918e+05
1.26000000e+02	5.08661901e+05
1.27000000e+02	5.12656800e+05
1.28000000e+02	5.16653595e+05
1.29000000e+02	5.20652561e+05
1.30000000e+02	5.24653969e+05
1.31000000e+02	5.28657976e+05
1.32000000e+02	5.32664450e+05
1.33000000e+02	5.36673843e+05
1.34000000e+02	5.40684103e+05
1.35000000e+02	5.44700904e+05
1.36000000e+02	5.48720289e+05
1.37000000e+02	5.52742516e+05
1.38000000e+02	5.56768421e+05
1.39000000e+02	5.60797833e+05
1.40000000e+02	5.64831656e+05
1.41000000e+02	5.68869300e+05
1.42000000e+02	5.72911477e+05
1.43000000e+02	5.76958371e+05
1.44000000e+02	5.81009639e+05
1.45000000e+02	5.85066233e+05
1.46000000e+02	5.89127774e+05
1.47000000e+02	5.93194689e+05
1.48000000e+02	5.97267447e+05
1.49000000e+02	6.01345498e+05
1.50000000e+02	6.05430085e+05
1.51000000e+02	6.09520708e+05
1.52000000e+02	6.13617715e+05
1.53000000e+02	6.17721857e+05
1.54000000e+02	6.21832490e+05
1.55000000e+02	6.25950425e+05
1.56000000e+02	6.30075983e+05
1.57000000e+02	6.34208979e+05
1.58000000e+02	6.38350236e+05
1.59000000e+02	6.42499496e+05
1.60000000e+02	6.46657021e+05
1.61000000e+02	6.50823770e+05
1.62000000e+02	6.54999493e+05
1.63000000e+02	6.59184721e+05
1.64000000e+02	6.63378953e+05
1.65000000e+02	6.67583642e+05
1.66000000e+02	6.71798488e+05
1.67000000e+02	6.76023686e+05
1.68000000e+02	6.80259814e+05
1.69000000e+02	6.84506968e+05
1.70000000e+02	6.88765649e+05
1.71000000e+02	6.93036037e+05
1.72000000e+02	6.97318494e+05
1.73000000e+02	7.01613208e+05
1.74000000e+02	7.05921074e+05
1.75000000e+02	7.10241803e+05
1.76000000e+02	7.14576102e+05
1.77000000e+02	7.18924332e+05
1.78000000e+02	7.23284804e+05
1.79000000e+02	7.27662813e+05
1.80000000e+02	7.32054596e+05
1.81000000e+02	7.36461735e+05
1.82000000e+02	7.40884088e+05
1.83000000e+02	7.45322766e+05
1.84000000e+02	7.49777876e+05
1.85000000e+02	7.54250215e+05
1.86000000e+02	7.58739366e+05
1.87000000e+02	7.63246678e+05
1.88000000e+02	7.67771759e+05
1.89000000e+02	7.72315488e+05
1.90000000e+02	7.76878326e+05
1.91000000e+02	7.81460287e+05
1.92000000e+02	7.86062208e+05
1.93000000e+02	7.90684472e+05
1.94000000e+02	7.95327443e+05
1.95000000e+02	7.99991453e+05
1.96000000e+02	8.04677326e+05
1.97000000e+02	8.09385255e+05
1.98000000e+02	8.14115822e+05
1.99000000e+02	8.18869314e+05
2.00000000e+02	8.23646566e+05
2.01000000e+02	8.28447824e+05
2.02000000e+02	8.33273662e+05
2.03000000e+02	8.38124586e+05
2.04000000e+02	8.43000986e+05
2.05000000e+02	8.47903618e+05
2.06000000e+02	8.52832850e+05
2.07000000e+02	8.57789202e+05
2.08000000e+02	8.62773244e+05
2.09000000e+02	8.67785614e+05
2.10000000e+02	8.72826680e+05
2.11000000e+02	8.77897042e+05
2.12000000e+02	8.82997455e+05
2.13000000e+02	8.88128120e+05
2.14000000e+02	8.93290021e+05
2.15000000e+02	8.98483427e+05
2.16000000e+02	9.03709276e+05
2.17000000e+02	9.08967598e+05
2.18000000e+02	9.14259377e+05
2.19000000e+02	9.19585242e+05
2.20000000e+02	9.24945498e+05
2.21000000e+02	9.30341127e+05
2.22000000e+02	9.35772567e+05
2.23000000e+02	9.41240317e+05
2.24000000e+02	9.46745327e+05
2.25000000e+02	9.52288007e+05
2.26000000e+02	9.57868929e+05
2.27000000e+02	9.63488990e+05
2.28000000e+02	9.69148689e+05
2.29000000e+02	9.74848751e+05
2.30000000e+02	9.80589694e+05
2.31000000e+02	9.86372416e+05
2.32000000e+02	9.92197477e+05
2.33000000e+02	9.98065504e+05
2.34000000e+02	1.00397740e+06
2.35000000e+02	1.00993363e+06
2.36000000e+02	1.01593491e+06
2.37000000e+02	1.02198213e+06
2.38000000e+02	1.02807578e+06
2.39000000e+02	1.03421681e+06
2.40000000e+02	1.04040575e+06
2.41000000e+02	1.04664349e+06
2.42000000e+02	1.05293065e+06
2.43000000e+02	1.05926811e+06
2.44000000e+02	1.06565646e+06
2.45000000e+02	1.07209652e+06
2.46000000e+02	1.07858907e+06
2.47000000e+02	1.08513487e+06
2.48000000e+02	1.09173466e+06
2.49000000e+02	1.09838924e+06
2.50000000e+02	1.10509944e+06
2.51000000e+02	1.11186604e+06
2.52000000e+02	1.11868977e+06
2.53000000e+02	1.12557150e+06
2.54000000e+02	1.13251202e+06
2.55000000e+02	1.13951217e+06
2.56000000e+02	1.14657275e+06
2.57000000e+02	1.15369457e+06
2.58000000e+02	1.16087852e+06
2.59000000e+02	1.16812539e+06
2.60000000e+02	1.17543606e+06
2.61000000e+02	1.18281138e+06
2.62000000e+02	1.19025220e+06
2.63000000e+02	1.19775938e+06
2.64000000e+02	1.20533381e+06
2.65000000e+02	1.21297637e+06
2.66000000e+02	1.22068795e+06
2.67000000e+02	1.22846943e+06
2.68000000e+02	1.23632171e+06
2.69000000e+02	1.24424570e+06
2.70000000e+02	1.25224231e+06
2.71000000e+02	1.26031245e+06
2.72000000e+02	1.26845705e+06
2.73000000e+02	1.27667704e+06
2.74000000e+02	1.28497337e+06
2.75000000e+02	1.29334697e+06
2.76000000e+02	1.30179880e+06
2.77000000e+02	1.31032982e+06
2.78000000e+02	1.31894099e+06
2.79000000e+02	1.32763329e+06
2.80000000e+02	1.33640769e+06
2.81000000e+02	1.34526519e+06
2.82000000e+02	1.35420677e+06
2.83000000e+02	1.36323344e+06
2.84000000e+02	1.37234620e+06
2.85000000e+02	1.38154608e+06
2.86000000e+02	1.39083408e+06
2.87000000e+02	1.40021125e+06
2.88000000e+02	1.40967861e+06
2.89000000e+02	1.41923722e+06
2.90000000e+02	1.42888813e+06
2.91000000e+02	1.43863238e+06
2.92000000e+02	1.44847106e+06
2.93000000e+02	1.45840523e+06
2.94000000e+02	1.46843598e+06
2.95000000e+02	1.47856438e+06
2.96000000e+02	1.48879155e+06
2.97000000e+02	1.49911857e+06
2.98000000e+02	1.50954657e+06
2.99000000e+02	1.52007666e+06
3.00000000e+02	1.53070996e+06
3.01000000e+02	1.54144760e+06
3.02000000e+02	1.55229073e+06
3.03000000e+02	1.56324049e+06
3.04000000e+02	1.57429803e+06
3.05000000e+02	1.58546452e+06
3.06000000e+02	1.59674113e+06
3.07000000e+02	1.60812902e+06
3.08000000e+02	1.61962939e+06
3.09000000e+02	1.63124341e+06
3.10000000e+02	1.64297230e+06
3.11000000e+02	1.65481724e+06
3.12000000e+02	1.66677944e+06
3.13000000e+02	1.67886013e+06
3.14000000e+02	1.69106052e+06
3.15000000e+02	1.70338184e+06
3.16000000e+02	1.71582533e+06
3.17000000e+02	1.72839221e+06
3.18000000e+02	1.74108374e+06
3.19000000e+02	1.75390117e+06
3.20000000e+02	1.76684575e+06
3.21000000e+02	1.77991873e+06
3.22000000e+02	1.79312139e+06
3.23000000e+02	1.80645498e+06
3.24000000e+02	1.81992079e+06
3.25000000e+02	1.83352009e+06
3.26000000e+02	1.84725415e+06
3.27000000e+02	1.86112426e+06
3.28000000e+02	1.87513170e+06
3.29000000e+02	1.88927776e+06
3.30000000e+02	1.90356374e+06
3.31000000e+02	1.91799091e+06
3.32000000e+02	1.93256058e+06
3.33000000e+02	1.94727403e+06
3.34000000e+02	1.96213256e+06
3.35000000e+02	1.97713746e+06
3.36000000e+02	1.99229002e+06
3.37000000e+02	2.00759153e+06
3.38000000e+02	2.02304329e+06
3.39000000e+02	2.03864657e+06
3.40000000e+02	2.05440266e+06
3.41000000e+02	2.07031285e+06
3.42000000e+02	2.08637840e+06
3.43000000e+02	2.10260058e+06
3.44000000e+02	2.11898067e+06
3.45000000e+02	2.13551992e+06
3.46000000e+02	2.15221958e+06
3.47000000e+02	2.16908091e+06
3.48000000e+02	2.18610512e+06
3.49000000e+02	2.20329346e+06
3.50000000e+02	2.22064715e+06
3.51000000e+02	2.23816737e+06
3.52000000e+02	2.25585535e+06
3.53000000e+02	2.27371225e+06
3.54000000e+02	2.29173924e+06
3.55000000e+02	2.30993749e+06
3.56000000e+02	2.32830812e+06
3.57000000e+02	2.34685228e+06
3.58000000e+02	2.36557106e+06
3.59000000e+02	2.38446555e+06
3.60000000e+02	2.40353682e+06
3.61000000e+02	2.42278594e+06
3.62000000e+02	2.44221391e+06
3.63000000e+02	2.46182176e+06
3.64000000e+02	2.48161047e+06
3.65000000e+02	2.50158099e+06
3.66000000e+02	2.52173427e+06
3.67000000e+02	2.54207120e+06
3.68000000e+02	2.56259268e+06
3.69000000e+02	2.58329955e+06
3.70000000e+02	2.60419264e+06
3.71000000e+02	2.62527274e+06
3.72000000e+02	2.64654060e+06
3.73000000e+02	2.66799695e+06
3.74000000e+02	2.68964248e+06
3.75000000e+02	2.71147786e+06
3.76000000e+02	2.73350368e+06
3.77000000e+02	2.75572054e+06
3.78000000e+02	2.77812897e+06
3.79000000e+02	2.80072948e+06
3.80000000e+02	2.82352251e+06
3.81000000e+02	2.84650849e+06
3.82000000e+02	2.86968778e+06
3.83000000e+02	2.89306071e+06
3.84000000e+02	2.91662754e+06
3.85000000e+02	2.94038852e+06
3.86000000e+02	2.96434382e+06
3.87000000e+02	2.98849356e+06
3.88000000e+02	3.01283784e+06
3.89000000e+02	3.03737666e+06
3.90000000e+02	3.06211000e+06
3.91000000e+02	3.08703779e+06
3.92000000e+02	3.11215987e+06
3.93000000e+02	3.13747605e+06
3.94000000e+02	3.16298607e+06
3.95000000e+02	3.18868963e+06
3.96000000e+02	3.21458634e+06
3.97000000e+02	3.24067578e+06
3.98000000e+02	3.26695744e+06
3.99000000e+02	3.29343077e+06
4.00000000e+02	3.32009514e+06
4.01000000e+02	3.34694987e+06
4.02000000e+02	3.37399421e+06
4.03000000e+02	3.40122734e+06
4.04000000e+02	3.42864837e+06
4.05000000e+02	3.45625636e+06
4.06000000e+02	3.48405029e+06
4.07000000e+02	3.51202908e+06
4.08000000e+02	3.54019158e+06
4.09000000e+02	3.56853658e+06
4.10000000e+02	3.59706278e+06
4.11000000e+02	3.62576883e+06
4.12000000e+02	3.65465331e+06
4.13000000e+02	3.68371474e+06
4.14000000e+02	3.71295155e+06
4.15000000e+02	3.74236213e+06
4.16000000e+02	3.77194477e+06
4.17000000e+02	3.80169773e+06
4.18000000e+02	3.83161918e+06
4.19000000e+02	3.86170722e+06
4.20000000e+02	3.89195990e+06
4.21000000e+02	3.92237520e+06
4.22000000e+02	3.95295104e+06
4.23000000e+02	3.98368526e+06
4.24000000e+02	4.01457565e+06
4.25000000e+02	4.04561994e+06
4.26000000e+02	4.07681580e+06
4.27000000e+02	4.10816082e+06
4.28000000e+02	4.13965255e+06
4.29000000e+02	4.17128848e+06
4.30000000e+02	4.20306603e+06
4.31000000e+02	4.23498258e+06
4.32000000e+02	4.26703544e+06
4.33000000e+02	4.29922187e+06
4.34000000e+02	4.33153908e+06
4.35000000e+02	4.36398421e+06
4.36000000e+02	4.39655438e+06
4.37000000e+02	4.42924662e+06
4.38000000e+02	4.46205793e+06
4.39000000e+02	4.49498525e+06
4.40000000e+02	4.52802549e+06
4.41000000e+02	4.56117547e+06
4.42000000e+02	4.59443200e+06
4.43000000e+02	4.62779182e+06
4.44000000e+02	4.66125162e+06
4.45000000e+02	4.69480802e+06
4.46000000e+02	4.72845764e+06
4.47000000e+02	4.76219698e+06
4.48000000e+02	4.79602254e+06
4.49000000e+02	4.82993073e+06
4.50000000e+02	4.86391792e+06
4.51000000e+02	4.89798040e+06
4.52000000e+02	4.93211442e+06
4.53000000e+02	4.96631613e+06
4.54000000e+02	5.00058164e+06
4.55000000e+02	5.03490698e+06
4.56000000e+02	5.06928808e+06
4.57000000e+02	5.10372079e+06
4.58000000e+02	5.13820090e+06
4.59000000e+02	5.17272407e+06
4.60000000e+02	5.20728586e+06
4.61000000e+02	5.24188173e+06
4.62000000e+02	5.27650702e+06
4.63000000e+02	5.31115694e+06
4.64000000e+02	5.34582655e+06
4.65000000e+02	5.38051078e+06
4.66000000e+02	5.41520439e+06
4.67000000e+02	5.44990198e+06
4.68000000e+02	5.48459797e+06
4.69000000e+02	5.51928658e+06
4.70000000e+02	5.55396182e+06
4.71000000e+02	5.58861748e+06
4.72000000e+02	5.62324712e+06
4.73000000e+02	5.65784403e+06
4.74000000e+02	5.69240126e+06
4.75000000e+02	5.72691154e+06
4.76000000e+02	5.76136733e+06
4.77000000e+02	5.79576074e+06
4.78000000e+02	5.83008356e+06
4.79000000e+02	5.86432721e+06
4.80000000e+02	5.89848273e+06
4.81000000e+02	5.93254077e+06
4.82000000e+02	5.96649153e+06
4.83000000e+02	6.00032480e+06
4.84000000e+02	6.03402990e+06
4.85000000e+02	6.06759564e+06
4.86000000e+02	6.10101035e+06
4.87000000e+02	6.13426182e+06
4.88000000e+02	6.16733727e+06
4.89000000e+02	6.20022338e+06
4.90000000e+02	6.23290620e+06
4.91000000e+02	6.26537119e+06
4.92000000e+02	6.29760314e+06
4.93000000e+02	6.32958622e+06
4.94000000e+02	6.36130389e+06
4.95000000e+02	6.39273892e+06
4.96000000e+02	6.42387338e+06
4.97000000e+02	6.45468858e+06
4.98000000e+02	6.48516510e+06
4.99000000e+02	6.51528277e+06
5.00000000e+02	6.54502063e+06
5.01000000e+02	6.57435694e+06
5.02000000e+02	6.60326917e+06
5.03000000e+02	6.63173401e+06
5.04000000e+02	6.65972733e+06
5.05000000e+02	6.68722422e+06
5.06000000e+02	6.71419897e+06
5.07000000e+02	6.74062508e+06
5.08000000e+02	6.76647528e+06
5.09000000e+02	6.79172153e+06
5.10000000e+02	6.81633505e+06
5.11000000e+02	6.84028634e+06
5.12000000e+02	6.86354520e+06
5.13000000e+02	6.88608077e+06
5.14000000e+02	6.90786158e+06
5.15000000e+02	6.92885556e+06
5.16000000e+02	6.94903010e+06
5.17000000e+02	6.96835212e+06
5.18000000e+02	6.98678811e+06
5.19000000e+02	7.00430421e+06
5.20000000e+02	7.02086627e+06
5.21000000e+02	7.03643991e+06
5.22000000e+02	7.05099065e+06
5.23000000e+02	7.06448395e+06
5.24000000e+02	7.07688532e+06
5.25000000e+02	7.08816043e+06
5.26000000e+02	7.09827522e+06
5.27000000e+02	7.10719597e+06
5.28000000e+02	7.11488946e+06
5.29000000e+02	7.12132308e+06
5.30000000e+02	7.12646493e+06
5.31000000e+02	7.13028395e+06
5.32000000e+02	7.13275010e+06
5.33000000e+02	7.13383442e+06
5.34000000e+02	7.13350921e+06
5.35000000e+02	7.13174814e+06
5.36000000e+02	7.12852641e+06
5.37000000e+02	7.12382084e+06
5.38000000e+02	7.11761003e+06
5.39000000e+02	7.10987451e+06
5.40000000e+02	7.10059680e+06
5.41000000e+02	7.08976158e+06
5.42000000e+02	7.07735577e+06
5.43000000e+02	7.06336865e+06
5.44000000e+02	7.04779195e+06
5.45000000e+02	7.03061995e+06
5.46000000e+02	7.01184953e+06
5.47000000e+02	6.99148026e+06
5.48000000e+02	6.96951441e+06
5.49000000e+02	6.94595706e+06
5.50000000e+02	6.92081608e+06
5.51000000e+02	6.89410212e+06
5.52000000e+02	6.86582867e+06
5.53000000e+02	6.83601201e+06
5.54000000e+02	6.80467117e+06
5.55000000e+02	6.77182791e+06
5.56000000e+02	6.73750664e+06
5.57000000e+02	6.70173438e+06
5.58000000e+02	6.66454062e+06
5.59000000e+02	6.62595727e+06
5.60000000e+02	6.58601851e+06
5.61000000e+02	6.54476070e+06
5.62000000e+02	6.50222222e+06
5.63000000e+02	6.45844335e+06
5.64000000e+02	6.41346609e+06
5.65000000e+02	6.36733402e+06
5.66000000e+02	6.32009213e+06
5.67000000e+02	6.27178667e+06
5.68000000e+02	6.22246493e+06
5.69000000e+02	6.17217510e+06
5.70000000e+02	6.12096612e+06
5.71000000e+02	6.06888744e+06
5.72000000e+02	6.01598890e+06
5.73000000e+02	5.96232054e+06
5.74000000e+02	5.90793243e+06
5.75000000e+02	5.85287453e+06
5.76000000e+02	5.79719652e+06
5.77000000e+02	5.74094764e+06
5.78000000e+02	5.68417658e+06
5.79000000e+02	5.62693134e+06
5.80000000e+02	5.56925908e+06
5.81000000e+02	5.51120604e+06
5.82000000e+02	5.45281741e+06
5.83000000e+02	5.39413728e+06
5.84000000e+02	5.33520848e+06
5.85000000e+02	5.27607256e+06
5.86000000e+02	5.21676974e+06
5.87000000e+02	5.15733878e+06
5.88000000e+02	5.09781701e+06
5.89000000e+02	5.03824024e+06
5.90000000e+02	4.97864277e+06
5.91000000e+02	4.91905733e+06
5.92000000e+02	4.85951510e+06
5.93000000e+02	4.80004569e+06
5.94000000e+02	4.74067713e+06
5.95000000e+02	4.68143591e+06
5.96000000e+02	4.62234695e+06
5.97000000e+02	4.56343367e+06
5.98000000e+02	4.50471795e+06
5.99000000e+02	4.44622023e+06
6.00000000e+02	4.38795948e+06
6.01000000e+02	4.32995328e+06
6.02000000e+02	4.27221783e+06
6.03000000e+02	4.21476799e+06
6.04000000e+02	4.15761736e+06
6.05000000e+02	4.10077828e+06
6.06000000e+02	4.04426190e+06
6.07000000e+02	3.98807823e+06
6.08000000e+02	3.93223616e+06
6.09000000e+02	3.87674355e+06
6.10000000e+02	3.82160725e+06
6.11000000e+02	3.76683313e+06
6.12000000e+02	3.71242620e+06
6.13000000e+02	3.65839056e+06
6.14000000e+02	3.60472952e+06
6.15000000e+02	3.55144562e+06
6.16000000e+02	3.49854067e+06
6.17000000e+02	3.44601580e+06
6.18000000e+02	3.39387150e+06
6.19000000e+02	3.34210765e+06
6.20000000e+02	3.29072358e+06
6.21000000e+02	3.23971810e+06
6.22000000e+02	3.18908953e+06
6.23000000e+02	3.13883575e+06
6.24000000e+02	3.08895421e+06
6.25000000e+02	3.03944196e+06
6.26000000e+02	2.99029573e+06
6.27000000e+02	2.94151188e+06
6.28000000e+02	2.89308649e+06
6.29000000e+02	2.84501540e+06
6.30000000e+02	2.79729420e+06
6.31000000e+02	2.74991830e+06
6.32000000e+02	2.70288281e+06
6.33000000e+02	2.65618274e+06
6.34000000e+02	2.60981282e+06
6.35000000e+02	2.56376765e+06
6.36000000e+02	2.51804176e+06
6.37000000e+02	2.47262958e+06
6.38000000e+02	2.42752549e+06
6.39000000e+02	2.38272380e+06
6.40000000e+02	2.33821876e+06
6.41000000e+02	2.29400452e+06
6.42000000e+02	2.25007518e+06
6.43000000e+02	2.20642474e+06
6.44000000e+02	2.16304707e+06
6.45000000e+02	2.11993609e+06
6.46000000e+02	2.07708576e+06
6.47000000e+02	2.03449016e+06
6.48000000e+02	1.99214349e+06
6.49000000e+02	1.95003992e+06
6.50000000e+02	1.90817352e+06
6.51000000e+02	1.86653831e+06
6.52000000e+02	1.82512834e+06
6.53000000e+02	1.78393782e+06
6.54000000e+02	1.74296091e+06
6.55000000e+02	1.70219177e+06
6.56000000e+02	1.66162456e+06
6.57000000e+02	1.62125365e+06
6.58000000e+02	1.58107355e+06
6.59000000e+02	1.54107871e+06
