# Profil de FluxX au temps 4.000000000000029e-12 
# simu : /Volumes/MERCURE/JOBS/Zeq1_tanh_50mic_7p5e19_B0_20ps/GNU/FluxX@y-c.set
# col 0 : abscisse (um)
# col 1 : FluxX (W/cm2)
0.00000000e+00	0.00000000e+00
1.00000000e+00	5.68934657e+05
2.00000000e+00	1.04389587e+06
3.00000000e+00	1.76935408e+06
4.00000000e+00	2.31637576e+06
5.00000000e+00	2.85422727e+06
6.00000000e+00	3.39282291e+06
7.00000000e+00	3.93558738e+06
8.00000000e+00	4.48408223e+06
9.00000000e+00	5.03933573e+06
1.00000000e+01	5.60237827e+06
1.10000000e+01	6.17421078e+06
1.20000000e+01	6.75562356e+06
1.30000000e+01	7.34717961e+06
1.40000000e+01	7.94953394e+06
1.50000000e+01	8.56373075e+06
1.60000000e+01	9.19104187e+06
1.70000000e+01	9.83259429e+06
1.80000000e+01	1.04892855e+07
1.90000000e+01	1.11620146e+07
2.00000000e+01	1.18518972e+07
2.10000000e+01	1.25602645e+07
2.20000000e+01	1.32885208e+07
2.30000000e+01	1.40380243e+07
2.40000000e+01	1.48100496e+07
2.50000000e+01	1.56058199e+07
2.60000000e+01	1.64265558e+07
2.70000000e+01	1.72735094e+07
2.80000000e+01	1.81479821e+07
2.90000000e+01	1.90513302e+07
3.00000000e+01	1.99849647e+07
3.10000000e+01	2.09503502e+07
3.20000000e+01	2.19490033e+07
3.30000000e+01	2.29824961e+07
3.40000000e+01	2.40524566e+07
3.50000000e+01	2.51605729e+07
3.60000000e+01	2.63085967e+07
3.70000000e+01	2.74983492e+07
3.80000000e+01	2.87317233e+07
3.90000000e+01	3.00106900e+07
4.00000000e+01	3.13373013e+07
4.10000000e+01	3.27136945e+07
4.20000000e+01	3.41420938e+07
4.30000000e+01	3.56248138e+07
4.40000000e+01	3.71642604e+07
4.50000000e+01	3.87629335e+07
4.60000000e+01	4.04234275e+07
4.70000000e+01	4.21484342e+07
4.80000000e+01	4.39407449e+07
4.90000000e+01	4.58032544e+07
5.00000000e+01	4.77389612e+07
5.10000000e+01	4.97509761e+07
5.20000000e+01	5.18425251e+07
5.30000000e+01	5.40169546e+07
5.40000000e+01	5.62777391e+07
5.50000000e+01	5.86284867e+07
5.60000000e+01	6.10729457e+07
5.70000000e+01	6.36150141e+07
5.80000000e+01	6.62587427e+07
5.90000000e+01	6.90083476e+07
6.00000000e+01	7.18682125e+07
6.10000000e+01	7.48428985e+07
6.20000000e+01	7.79371526e+07
6.30000000e+01	8.11559142e+07
6.40000000e+01	8.45043240e+07
6.50000000e+01	8.79877313e+07
6.60000000e+01	9.16117042e+07
6.70000000e+01	9.53820391e+07
6.80000000e+01	9.93047686e+07
6.90000000e+01	1.03386175e+08
7.00000000e+01	1.07632798e+08
7.10000000e+01	1.12051448e+08
7.20000000e+01	1.16649218e+08
7.30000000e+01	1.21433489e+08
7.40000000e+01	1.26411950e+08
7.50000000e+01	1.31592604e+08
7.60000000e+01	1.36983778e+08
7.70000000e+01	1.42594136e+08
7.80000000e+01	1.48432690e+08
7.90000000e+01	1.54508811e+08
8.00000000e+01	1.60832242e+08
8.10000000e+01	1.67413111e+08
8.20000000e+01	1.74261943e+08
8.30000000e+01	1.81389684e+08
8.40000000e+01	1.88807708e+08
8.50000000e+01	1.96527846e+08
8.60000000e+01	2.04562398e+08
8.70000000e+01	2.12924165e+08
8.80000000e+01	2.21626461e+08
8.90000000e+01	2.30683149e+08
9.00000000e+01	2.40108652e+08
9.10000000e+01	2.49917989e+08
9.20000000e+01	2.60126795e+08
9.30000000e+01	2.70751348e+08
9.40000000e+01	2.81808592e+08
9.50000000e+01	2.93316170e+08
9.60000000e+01	3.05292444e+08
9.70000000e+01	3.17756528e+08
9.80000000e+01	3.30728318e+08
9.90000000e+01	3.44228517e+08
1.00000000e+02	3.58278675e+08
1.01000000e+02	3.72901216e+08
1.02000000e+02	3.88119476e+08
1.03000000e+02	4.03957741e+08
1.04000000e+02	4.20441283e+08
1.05000000e+02	4.37596397e+08
1.06000000e+02	4.55450451e+08
1.07000000e+02	4.74031917e+08
1.08000000e+02	4.93370429e+08
1.09000000e+02	5.13496820e+08
1.10000000e+02	5.34443175e+08
1.11000000e+02	5.56242881e+08
1.12000000e+02	5.78930677e+08
1.13000000e+02	6.02542715e+08
1.14000000e+02	6.27116607e+08
1.15000000e+02	6.52691495e+08
1.16000000e+02	6.79308106e+08
1.17000000e+02	7.07008814e+08
1.18000000e+02	7.35837714e+08
1.19000000e+02	7.65840684e+08
1.20000000e+02	7.97065459e+08
1.21000000e+02	8.29561709e+08
1.22000000e+02	8.63381111e+08
1.23000000e+02	8.98577432e+08
1.24000000e+02	9.35206617e+08
1.25000000e+02	9.73326867e+08
1.26000000e+02	1.01299874e+09
1.27000000e+02	1.05428523e+09
1.28000000e+02	1.09725189e+09
1.29000000e+02	1.14196691e+09
1.30000000e+02	1.18850123e+09
1.31000000e+02	1.23692865e+09
1.32000000e+02	1.28732594e+09
1.33000000e+02	1.33977298e+09
1.34000000e+02	1.39435285e+09
1.35000000e+02	1.45115198e+09
1.36000000e+02	1.51026028e+09
1.37000000e+02	1.57177125e+09
1.38000000e+02	1.63578219e+09
1.39000000e+02	1.70239426e+09
1.40000000e+02	1.77171272e+09
1.41000000e+02	1.84384701e+09
1.42000000e+02	1.91891100e+09
1.43000000e+02	1.99702308e+09
1.44000000e+02	2.07830639e+09
1.45000000e+02	2.16288901e+09
1.46000000e+02	2.25090411e+09
1.47000000e+02	2.34249019e+09
1.48000000e+02	2.43779127e+09
1.49000000e+02	2.53695709e+09
1.50000000e+02	2.64014339e+09
1.51000000e+02	2.74751207e+09
1.52000000e+02	2.85923146e+09
1.53000000e+02	2.97547660e+09
1.54000000e+02	3.09642942e+09
1.55000000e+02	3.22227911e+09
1.56000000e+02	3.35322229e+09
1.57000000e+02	3.48946337e+09
1.58000000e+02	3.63121483e+09
1.59000000e+02	3.77869751e+09
1.60000000e+02	3.93214094e+09
1.61000000e+02	4.09178365e+09
1.62000000e+02	4.25787356e+09
1.63000000e+02	4.43066828e+09
1.64000000e+02	4.61043549e+09
1.65000000e+02	4.79745334e+09
1.66000000e+02	4.99201081e+09
1.67000000e+02	5.19440810e+09
1.68000000e+02	5.40495712e+09
1.69000000e+02	5.62398182e+09
1.70000000e+02	5.85181872e+09
1.71000000e+02	6.08881731e+09
1.72000000e+02	6.33534055e+09
1.73000000e+02	6.59176536e+09
1.74000000e+02	6.85848311e+09
1.75000000e+02	7.13590016e+09
1.76000000e+02	7.42443838e+09
1.77000000e+02	7.72453570e+09
1.78000000e+02	8.03664669e+09
1.79000000e+02	8.36124314e+09
1.80000000e+02	8.69881467e+09
1.81000000e+02	9.04986934e+09
1.82000000e+02	9.41493430e+09
1.83000000e+02	9.79455645e+09
1.84000000e+02	1.01893031e+10
1.85000000e+02	1.05997626e+10
1.86000000e+02	1.10265454e+10
1.87000000e+02	1.14702841e+10
1.88000000e+02	1.19316349e+10
1.89000000e+02	1.24112780e+10
1.90000000e+02	1.29099184e+10
1.91000000e+02	1.34282869e+10
1.92000000e+02	1.39671407e+10
1.93000000e+02	1.45272645e+10
1.94000000e+02	1.51094710e+10
1.95000000e+02	1.57146022e+10
1.96000000e+02	1.63435300e+10
1.97000000e+02	1.69971573e+10
1.98000000e+02	1.76764188e+10
1.99000000e+02	1.83822821e+10
2.00000000e+02	1.91157488e+10
2.01000000e+02	1.98778549e+10
2.02000000e+02	2.06696726e+10
2.03000000e+02	2.14923109e+10
2.04000000e+02	2.23469165e+10
2.05000000e+02	2.32346754e+10
2.06000000e+02	2.41568135e+10
2.07000000e+02	2.51145978e+10
2.08000000e+02	2.61093377e+10
2.09000000e+02	2.71423858e+10
2.10000000e+02	2.82151394e+10
2.11000000e+02	2.93290412e+10
2.12000000e+02	3.04855811e+10
2.13000000e+02	3.16862966e+10
2.14000000e+02	3.29327744e+10
2.15000000e+02	3.42266515e+10
2.16000000e+02	3.55696164e+10
2.17000000e+02	3.69634102e+10
2.18000000e+02	3.84098276e+10
2.19000000e+02	3.99107185e+10
2.20000000e+02	4.14679889e+10
2.21000000e+02	4.30836018e+10
2.22000000e+02	4.47595789e+10
2.23000000e+02	4.64980013e+10
2.24000000e+02	4.83010106e+10
2.25000000e+02	5.01708103e+10
2.26000000e+02	5.21096668e+10
2.27000000e+02	5.41199101e+10
2.28000000e+02	5.62039352e+10
2.29000000e+02	5.83642030e+10
2.30000000e+02	6.06032410e+10
2.31000000e+02	6.29236447e+10
2.32000000e+02	6.53280780e+10
2.33000000e+02	6.78192743e+10
2.34000000e+02	7.04000372e+10
2.35000000e+02	7.30732410e+10
2.36000000e+02	7.58418319e+10
2.37000000e+02	7.87088281e+10
2.38000000e+02	8.16773203e+10
2.39000000e+02	8.47504728e+10
2.40000000e+02	8.79315229e+10
2.41000000e+02	9.12237822e+10
2.42000000e+02	9.46306359e+10
2.43000000e+02	9.81555437e+10
2.44000000e+02	1.01802039e+11
2.45000000e+02	1.05573731e+11
2.46000000e+02	1.09474299e+11
2.47000000e+02	1.13507501e+11
2.48000000e+02	1.17677164e+11
2.49000000e+02	1.21987189e+11
2.50000000e+02	1.26441551e+11
2.51000000e+02	1.31044293e+11
2.52000000e+02	1.35799530e+11
2.53000000e+02	1.40711446e+11
2.54000000e+02	1.45784294e+11
2.55000000e+02	1.51022392e+11
2.56000000e+02	1.56430125e+11
2.57000000e+02	1.62011940e+11
2.58000000e+02	1.67772346e+11
2.59000000e+02	1.73715912e+11
2.60000000e+02	1.79847265e+11
2.61000000e+02	1.86171088e+11
2.62000000e+02	1.92692114e+11
2.63000000e+02	1.99415129e+11
2.64000000e+02	2.06344964e+11
2.65000000e+02	2.13486497e+11
2.66000000e+02	2.20844644e+11
2.67000000e+02	2.28424362e+11
2.68000000e+02	2.36230638e+11
2.69000000e+02	2.44268492e+11
2.70000000e+02	2.52542972e+11
2.71000000e+02	2.61059144e+11
2.72000000e+02	2.69822095e+11
2.73000000e+02	2.78836925e+11
2.74000000e+02	2.88108743e+11
2.75000000e+02	2.97642660e+11
2.76000000e+02	3.07443788e+11
2.77000000e+02	3.17517232e+11
2.78000000e+02	3.27868087e+11
2.79000000e+02	3.38501427e+11
2.80000000e+02	3.49422306e+11
2.81000000e+02	3.60635750e+11
2.82000000e+02	3.72146747e+11
2.83000000e+02	3.83960247e+11
2.84000000e+02	3.96081152e+11
2.85000000e+02	4.08514309e+11
2.86000000e+02	4.21264507e+11
2.87000000e+02	4.34336465e+11
2.88000000e+02	4.47734833e+11
2.89000000e+02	4.61464175e+11
2.90000000e+02	4.75528972e+11
2.91000000e+02	4.89933608e+11
2.92000000e+02	5.04682365e+11
2.93000000e+02	5.19779418e+11
2.94000000e+02	5.35228824e+11
2.95000000e+02	5.51034518e+11
2.96000000e+02	5.67200303e+11
2.97000000e+02	5.83729844e+11
2.98000000e+02	6.00626661e+11
2.99000000e+02	6.17894122e+11
3.00000000e+02	6.35535432e+11
3.01000000e+02	6.53553633e+11
3.02000000e+02	6.71951588e+11
3.03000000e+02	6.90731981e+11
3.04000000e+02	7.09897307e+11
3.05000000e+02	7.29449864e+11
3.06000000e+02	7.49391747e+11
3.07000000e+02	7.69724842e+11
3.08000000e+02	7.90450819e+11
3.09000000e+02	8.11571125e+11
3.10000000e+02	8.33086977e+11
3.11000000e+02	8.54999356e+11
3.12000000e+02	8.77309004e+11
3.13000000e+02	9.00016412e+11
3.14000000e+02	9.23121819e+11
3.15000000e+02	9.46625207e+11
3.16000000e+02	9.70526293e+11
3.17000000e+02	9.94824523e+11
3.18000000e+02	1.01951907e+12
3.19000000e+02	1.04460883e+12
3.20000000e+02	1.07009243e+12
3.21000000e+02	1.09596817e+12
3.22000000e+02	1.12223410e+12
3.23000000e+02	1.14888797e+12
3.24000000e+02	1.17592721e+12
3.25000000e+02	1.20334897e+12
3.26000000e+02	1.23115010e+12
3.27000000e+02	1.25932713e+12
3.28000000e+02	1.28787630e+12
3.29000000e+02	1.31679352e+12
3.30000000e+02	1.34607442e+12
3.31000000e+02	1.37571430e+12
3.32000000e+02	1.40570814e+12
3.33000000e+02	1.43605064e+12
3.34000000e+02	1.46673616e+12
3.35000000e+02	1.49775876e+12
3.36000000e+02	1.52911220e+12
3.37000000e+02	1.56078991e+12
3.38000000e+02	1.59278503e+12
3.39000000e+02	1.62509038e+12
3.40000000e+02	1.65769849e+12
3.41000000e+02	1.69060159e+12
3.42000000e+02	1.72379159e+12
3.43000000e+02	1.75726013e+12
3.44000000e+02	1.79099854e+12
3.45000000e+02	1.82499786e+12
3.46000000e+02	1.85924887e+12
3.47000000e+02	1.89374204e+12
3.48000000e+02	1.92846757e+12
3.49000000e+02	1.96341541e+12
3.50000000e+02	1.99857522e+12
3.51000000e+02	2.03393640e+12
3.52000000e+02	2.06948812e+12
3.53000000e+02	2.10521926e+12
3.54000000e+02	2.14111850e+12
3.55000000e+02	2.17717424e+12
3.56000000e+02	2.21337469e+12
3.57000000e+02	2.24970780e+12
3.58000000e+02	2.28616132e+12
3.59000000e+02	2.32272280e+12
3.60000000e+02	2.35937956e+12
3.61000000e+02	2.39611875e+12
3.62000000e+02	2.43292731e+12
3.63000000e+02	2.46979202e+12
3.64000000e+02	2.50669947e+12
3.65000000e+02	2.54363610e+12
3.66000000e+02	2.58058818e+12
3.67000000e+02	2.61754183e+12
3.68000000e+02	2.65448305e+12
3.69000000e+02	2.69139768e+12
3.70000000e+02	2.72827145e+12
3.71000000e+02	2.76508999e+12
3.72000000e+02	2.80183879e+12
3.73000000e+02	2.83850326e+12
3.74000000e+02	2.87506873e+12
3.75000000e+02	2.91152042e+12
3.76000000e+02	2.94784350e+12
3.77000000e+02	2.98402307e+12
3.78000000e+02	3.02004416e+12
3.79000000e+02	3.05589178e+12
3.80000000e+02	3.09155089e+12
3.81000000e+02	3.12700639e+12
3.82000000e+02	3.16224320e+12
3.83000000e+02	3.19724619e+12
3.84000000e+02	3.23200026e+12
3.85000000e+02	3.26649029e+12
3.86000000e+02	3.30070116e+12
3.87000000e+02	3.33461779e+12
3.88000000e+02	3.36822511e+12
3.89000000e+02	3.40150810e+12
3.90000000e+02	3.43445176e+12
3.91000000e+02	3.46704115e+12
3.92000000e+02	3.49926138e+12
3.93000000e+02	3.53109763e+12
3.94000000e+02	3.56253514e+12
3.95000000e+02	3.59355923e+12
3.96000000e+02	3.62415531e+12
3.97000000e+02	3.65430886e+12
3.98000000e+02	3.68400547e+12
3.99000000e+02	3.71323081e+12
4.00000000e+02	3.74197069e+12
4.01000000e+02	3.77021099e+12
4.02000000e+02	3.79793773e+12
4.03000000e+02	3.82513705e+12
4.04000000e+02	3.85179520e+12
4.05000000e+02	3.87789857e+12
4.06000000e+02	3.90343367e+12
4.07000000e+02	3.92838717e+12
4.08000000e+02	3.95274585e+12
4.09000000e+02	3.97649665e+12
4.10000000e+02	3.99962663e+12
4.11000000e+02	4.02212302e+12
4.12000000e+02	4.04397320e+12
4.13000000e+02	4.06516466e+12
4.14000000e+02	4.08568509e+12
4.15000000e+02	4.10552229e+12
4.16000000e+02	4.12466424e+12
4.17000000e+02	4.14309903e+12
4.18000000e+02	4.16081495e+12
4.19000000e+02	4.17780041e+12
4.20000000e+02	4.19404397e+12
4.21000000e+02	4.20953434e+12
4.22000000e+02	4.22426038e+12
4.23000000e+02	4.23821110e+12
4.24000000e+02	4.25137563e+12
4.25000000e+02	4.26374328e+12
4.26000000e+02	4.27530347e+12
4.27000000e+02	4.28604576e+12
4.28000000e+02	4.29595987e+12
4.29000000e+02	4.30503564e+12
4.30000000e+02	4.31326304e+12
4.31000000e+02	4.32063218e+12
4.32000000e+02	4.32713331e+12
4.33000000e+02	4.33275680e+12
4.34000000e+02	4.33749316e+12
4.35000000e+02	4.34133303e+12
4.36000000e+02	4.34426718e+12
4.37000000e+02	4.34628654e+12
4.38000000e+02	4.34738215e+12
4.39000000e+02	4.34754520e+12
4.40000000e+02	4.34676705e+12
4.41000000e+02	4.34503918e+12
4.42000000e+02	4.34235324e+12
4.43000000e+02	4.33870107e+12
4.44000000e+02	4.33407464e+12
4.45000000e+02	4.32846616e+12
4.46000000e+02	4.32186799e+12
4.47000000e+02	4.31427272e+12
4.48000000e+02	4.30567318e+12
4.49000000e+02	4.29606241e+12
4.50000000e+02	4.28543373e+12
4.51000000e+02	4.27378073e+12
4.52000000e+02	4.26109731e+12
4.53000000e+02	4.24737766e+12
4.54000000e+02	4.23261635e+12
4.55000000e+02	4.21680830e+12
4.56000000e+02	4.19994884e+12
4.57000000e+02	4.18203373e+12
4.58000000e+02	4.16305918e+12
4.59000000e+02	4.14302189e+12
4.60000000e+02	4.12191911e+12
4.61000000e+02	4.09974863e+12
4.62000000e+02	4.07650885e+12
4.63000000e+02	4.05219881e+12
4.64000000e+02	4.02681824e+12
4.65000000e+02	4.00036760e+12
4.66000000e+02	3.97284808e+12
4.67000000e+02	3.94426172e+12
4.68000000e+02	3.91461141e+12
4.69000000e+02	3.88390092e+12
4.70000000e+02	3.85213500e+12
4.71000000e+02	3.81931936e+12
4.72000000e+02	3.78546077e+12
4.73000000e+02	3.75056708e+12
4.74000000e+02	3.71464727e+12
4.75000000e+02	3.67771148e+12
4.76000000e+02	3.63977106e+12
4.77000000e+02	3.60083864e+12
4.78000000e+02	3.56092808e+12
4.79000000e+02	3.52005461e+12
4.80000000e+02	3.47823477e+12
4.81000000e+02	3.43548648e+12
4.82000000e+02	3.39182904e+12
4.83000000e+02	3.34728317e+12
4.84000000e+02	3.30187099e+12
4.85000000e+02	3.25561603e+12
4.86000000e+02	3.20854324e+12
4.87000000e+02	3.16067895e+12
4.88000000e+02	3.11205090e+12
4.89000000e+02	3.06268817e+12
4.90000000e+02	3.01262119e+12
4.91000000e+02	2.96188166e+12
4.92000000e+02	2.91050257e+12
4.93000000e+02	2.85851809e+12
4.94000000e+02	2.80596357e+12
4.95000000e+02	2.75287546e+12
4.96000000e+02	2.69929125e+12
4.97000000e+02	2.64524942e+12
4.98000000e+02	2.59078939e+12
4.99000000e+02	2.53595142e+12
5.00000000e+02	2.48077660e+12
5.01000000e+02	2.42530675e+12
5.02000000e+02	2.36958435e+12
5.03000000e+02	2.31365256e+12
5.04000000e+02	2.25755508e+12
5.05000000e+02	2.20133614e+12
5.06000000e+02	2.14504045e+12
5.07000000e+02	2.08871317e+12
5.08000000e+02	2.03239986e+12
5.09000000e+02	1.97614644e+12
5.10000000e+02	1.91999916e+12
5.11000000e+02	1.86400458e+12
5.12000000e+02	1.80820954e+12
5.13000000e+02	1.75266112e+12
5.14000000e+02	1.69740660e+12
5.15000000e+02	1.64249347e+12
5.16000000e+02	1.58796935e+12
5.17000000e+02	1.53388194e+12
5.18000000e+02	1.48027903e+12
5.19000000e+02	1.42720836e+12
5.20000000e+02	1.37471762e+12
5.21000000e+02	1.32285431e+12
5.22000000e+02	1.27166569e+12
5.23000000e+02	1.22119865e+12
5.24000000e+02	1.17149959e+12
5.25000000e+02	1.12261427e+12
5.26000000e+02	1.07458766e+12
5.27000000e+02	1.02746379e+12
5.28000000e+02	9.81285521e+11
5.29000000e+02	9.36094386e+11
5.30000000e+02	8.91930345e+11
5.31000000e+02	8.48831575e+11
5.32000000e+02	8.06834236e+11
5.33000000e+02	7.65972226e+11
5.34000000e+02	7.26276944e+11
5.35000000e+02	6.87777046e+11
5.36000000e+02	6.50498211e+11
5.37000000e+02	6.14462917e+11
5.38000000e+02	5.79690221e+11
5.39000000e+02	5.46195577e+11
5.40000000e+02	5.13990652e+11
5.41000000e+02	4.83083195e+11
5.42000000e+02	4.53476915e+11
5.43000000e+02	4.25171413e+11
5.44000000e+02	3.98162136e+11
5.45000000e+02	3.72440387e+11
5.46000000e+02	3.47993363e+11
5.47000000e+02	3.24804251e+11
5.48000000e+02	3.02852354e+11
5.49000000e+02	2.82113266e+11
5.50000000e+02	2.62559088e+11
5.51000000e+02	2.44158678e+11
5.52000000e+02	2.26877934e+11
5.53000000e+02	2.10680107e+11
5.54000000e+02	1.95526140e+11
5.55000000e+02	1.81375014e+11
5.56000000e+02	1.68184124e+11
5.57000000e+02	1.55909636e+11
5.58000000e+02	1.44506867e+11
5.59000000e+02	1.33930640e+11
5.60000000e+02	1.24135636e+11
5.61000000e+02	1.15076726e+11
5.62000000e+02	1.06709279e+11
5.63000000e+02	9.89894464e+10
5.64000000e+02	9.18744177e+10
5.65000000e+02	8.53226444e+10
5.66000000e+02	7.92940324e+10
5.67000000e+02	7.37501017e+10
5.68000000e+02	6.86541146e+10
5.69000000e+02	6.39711714e+10
5.70000000e+02	5.96682773e+10
5.71000000e+02	5.57143806e+10
5.72000000e+02	5.20803861e+10
5.73000000e+02	4.87391449e+10
5.74000000e+02	4.56654242e+10
5.75000000e+02	4.28358603e+10
5.76000000e+02	4.02288958e+10
5.77000000e+02	3.78247066e+10
5.78000000e+02	3.56051187e+10
5.79000000e+02	3.35535189e+10
5.80000000e+02	3.16547610e+10
5.81000000e+02	2.98950691e+10
5.82000000e+02	2.82619414e+10
5.83000000e+02	2.67440536e+10
5.84000000e+02	2.53311655e+10
5.85000000e+02	2.40140297e+10
5.86000000e+02	2.27843052e+10
5.87000000e+02	2.16344750e+10
5.88000000e+02	2.05577684e+10
5.89000000e+02	1.95480893e+10
5.90000000e+02	1.85999488e+10
5.91000000e+02	1.77084041e+10
5.92000000e+02	1.68690014e+10
5.93000000e+02	1.60777253e+10
5.94000000e+02	1.53309514e+10
5.95000000e+02	1.46254049e+10
5.96000000e+02	1.39581223e+10
5.97000000e+02	1.33264180e+10
5.98000000e+02	1.27278534e+10
5.99000000e+02	1.21602107e+10
6.00000000e+02	1.16214684e+10
6.01000000e+02	1.11097803e+10
6.02000000e+02	1.06234566e+10
6.03000000e+02	1.01609476e+10
6.04000000e+02	9.72082853e+09
6.05000000e+02	9.30178706e+09
6.06000000e+02	8.90261168e+09
6.07000000e+02	8.52218162e+09
6.08000000e+02	8.15945801e+09
6.09000000e+02	7.81347602e+09
6.10000000e+02	7.48333789e+09
6.11000000e+02	7.16820677e+09
6.12000000e+02	6.86730132e+09
6.13000000e+02	6.57989084e+09
6.14000000e+02	6.30529093e+09
6.15000000e+02	6.04285970e+09
6.16000000e+02	5.79199431e+09
6.17000000e+02	5.55212787e+09
6.18000000e+02	5.32272672e+09
6.19000000e+02	5.10328790e+09
6.20000000e+02	4.89333693e+09
6.21000000e+02	4.69242574e+09
6.22000000e+02	4.50013085e+09
6.23000000e+02	4.31605171e+09
6.24000000e+02	4.13980911e+09
6.25000000e+02	3.97104381e+09
6.26000000e+02	3.80941527e+09
6.27000000e+02	3.65460043e+09
6.28000000e+02	3.50629266e+09
6.29000000e+02	3.36420074e+09
6.30000000e+02	3.22804791e+09
6.31000000e+02	3.09757104e+09
6.32000000e+02	2.97251980e+09
6.33000000e+02	2.85265592e+09
6.34000000e+02	2.73775250e+09
6.35000000e+02	2.62759330e+09
6.36000000e+02	2.52197218e+09
6.37000000e+02	2.42069247e+09
6.38000000e+02	2.32356644e+09
6.39000000e+02	2.23041475e+09
6.40000000e+02	2.14106595e+09
6.41000000e+02	2.05535602e+09
6.42000000e+02	1.97312790e+09
6.43000000e+02	1.89423108e+09
6.44000000e+02	1.81852120e+09
6.45000000e+02	1.74585969e+09
6.46000000e+02	1.67611342e+09
6.47000000e+02	1.60915446e+09
6.48000000e+02	1.54485978e+09
6.49000000e+02	1.48311105e+09
6.50000000e+02	1.42379452e+09
6.51000000e+02	1.36680087e+09
6.52000000e+02	1.31202514e+09
6.53000000e+02	1.25936667e+09
6.54000000e+02	1.20872912e+09
6.55000000e+02	1.16002038e+09
6.56000000e+02	1.11315261e+09
6.57000000e+02	1.06804217e+09
6.58000000e+02	1.02460955e+09
6.59000000e+02	9.82779261e+08
