# Profil de FluxX au temps 9.000000000000108e-12 
# simu : /Volumes/MERCURE/JOBS/Zeq1_tanh_50mic_7p5e19_B0_20ps/GNU/FluxX@y-c.set
# col 0 : abscisse (um)
# col 1 : FluxX (W/cm2)
0.00000000e+00	0.00000000e+00
1.00000000e+00	2.56387426e+08
2.00000000e+00	5.12972336e+08
3.00000000e+00	7.70387666e+08
4.00000000e+00	1.02849511e+09
5.00000000e+00	1.28775525e+09
6.00000000e+00	1.54847007e+09
7.00000000e+00	1.81093603e+09
8.00000000e+00	2.07544899e+09
9.00000000e+00	2.34230574e+09
1.00000000e+01	2.61180466e+09
1.10000000e+01	2.88424597e+09
1.20000000e+01	3.15993203e+09
1.30000000e+01	3.43916750e+09
1.40000000e+01	3.72225955e+09
1.50000000e+01	4.00951807e+09
1.60000000e+01	4.30125590e+09
1.70000000e+01	4.59778900e+09
1.80000000e+01	4.89943667e+09
1.90000000e+01	5.20652175e+09
2.00000000e+01	5.51937083e+09
2.10000000e+01	5.83831445e+09
2.20000000e+01	6.16368727e+09
2.30000000e+01	6.49582833e+09
2.40000000e+01	6.83508119e+09
2.50000000e+01	7.18179415e+09
2.60000000e+01	7.53632046e+09
2.70000000e+01	7.89901850e+09
2.80000000e+01	8.27025194e+09
2.90000000e+01	8.65039002e+09
3.00000000e+01	9.03980764e+09
3.10000000e+01	9.43888562e+09
3.20000000e+01	9.84801084e+09
3.30000000e+01	1.02675765e+10
3.40000000e+01	1.06979821e+10
3.50000000e+01	1.11396341e+10
3.60000000e+01	1.15929453e+10
3.70000000e+01	1.20583360e+10
3.80000000e+01	1.25362332e+10
3.90000000e+01	1.30270716e+10
4.00000000e+01	1.35312933e+10
4.10000000e+01	1.40493479e+10
4.20000000e+01	1.45816932e+10
4.30000000e+01	1.51287947e+10
4.40000000e+01	1.56911263e+10
4.50000000e+01	1.62691700e+10
4.60000000e+01	1.68634165e+10
4.70000000e+01	1.74743651e+10
4.80000000e+01	1.81025239e+10
4.90000000e+01	1.87484097e+10
5.00000000e+01	1.94125487e+10
5.10000000e+01	2.00954762e+10
5.20000000e+01	2.07977369e+10
5.30000000e+01	2.15198847e+10
5.40000000e+01	2.22624835e+10
5.50000000e+01	2.30261067e+10
5.60000000e+01	2.38113375e+10
5.70000000e+01	2.46187693e+10
5.80000000e+01	2.54490053e+10
5.90000000e+01	2.63026591e+10
6.00000000e+01	2.71803542e+10
6.10000000e+01	2.80827248e+10
6.20000000e+01	2.90104154e+10
6.30000000e+01	2.99640811e+10
6.40000000e+01	3.09443873e+10
6.50000000e+01	3.19520104e+10
6.60000000e+01	3.29876373e+10
6.70000000e+01	3.40519657e+10
6.80000000e+01	3.51457042e+10
6.90000000e+01	3.62695722e+10
7.00000000e+01	3.74242998e+10
7.10000000e+01	3.86106283e+10
7.20000000e+01	3.98293097e+10
7.30000000e+01	4.10811072e+10
7.40000000e+01	4.23667945e+10
7.50000000e+01	4.36871565e+10
7.60000000e+01	4.50429891e+10
7.70000000e+01	4.64350989e+10
7.80000000e+01	4.78643035e+10
7.90000000e+01	4.93314310e+10
8.00000000e+01	5.08373206e+10
8.10000000e+01	5.23828220e+10
8.20000000e+01	5.39687957e+10
8.30000000e+01	5.55961126e+10
8.40000000e+01	5.72656541e+10
8.50000000e+01	5.89783119e+10
8.60000000e+01	6.07349881e+10
8.70000000e+01	6.25365948e+10
8.80000000e+01	6.43840543e+10
8.90000000e+01	6.62782984e+10
9.00000000e+01	6.82202690e+10
9.10000000e+01	7.02109174e+10
9.20000000e+01	7.22512042e+10
9.30000000e+01	7.43420994e+10
9.40000000e+01	7.64845819e+10
9.50000000e+01	7.86796395e+10
9.60000000e+01	8.09282683e+10
9.70000000e+01	8.32314733e+10
9.80000000e+01	8.55902672e+10
9.90000000e+01	8.80056708e+10
1.00000000e+02	9.04787125e+10
1.01000000e+02	9.30104280e+10
1.02000000e+02	9.56018602e+10
1.03000000e+02	9.82540589e+10
1.04000000e+02	1.00968080e+11
1.05000000e+02	1.03744986e+11
1.06000000e+02	1.06585845e+11
1.07000000e+02	1.09491731e+11
1.08000000e+02	1.12463724e+11
1.09000000e+02	1.15502905e+11
1.10000000e+02	1.18610365e+11
1.11000000e+02	1.21787195e+11
1.12000000e+02	1.25034491e+11
1.13000000e+02	1.28353353e+11
1.14000000e+02	1.31744883e+11
1.15000000e+02	1.35210187e+11
1.16000000e+02	1.38750369e+11
1.17000000e+02	1.42366541e+11
1.18000000e+02	1.46059810e+11
1.19000000e+02	1.49831287e+11
1.20000000e+02	1.53682083e+11
1.21000000e+02	1.57613309e+11
1.22000000e+02	1.61626074e+11
1.23000000e+02	1.65721487e+11
1.24000000e+02	1.69900655e+11
1.25000000e+02	1.74164682e+11
1.26000000e+02	1.78514671e+11
1.27000000e+02	1.82951721e+11
1.28000000e+02	1.87476926e+11
1.29000000e+02	1.92091378e+11
1.30000000e+02	1.96796162e+11
1.31000000e+02	2.01592359e+11
1.32000000e+02	2.06481045e+11
1.33000000e+02	2.11463286e+11
1.34000000e+02	2.16540146e+11
1.35000000e+02	2.21712677e+11
1.36000000e+02	2.26981924e+11
1.37000000e+02	2.32348926e+11
1.38000000e+02	2.37814708e+11
1.39000000e+02	2.43380289e+11
1.40000000e+02	2.49046676e+11
1.41000000e+02	2.54814865e+11
1.42000000e+02	2.60685839e+11
1.43000000e+02	2.66660572e+11
1.44000000e+02	2.72740023e+11
1.45000000e+02	2.78925137e+11
1.46000000e+02	2.85216846e+11
1.47000000e+02	2.91616067e+11
1.48000000e+02	2.98123703e+11
1.49000000e+02	3.04740639e+11
1.50000000e+02	3.11467746e+11
1.51000000e+02	3.18305875e+11
1.52000000e+02	3.25255863e+11
1.53000000e+02	3.32318526e+11
1.54000000e+02	3.39494663e+11
1.55000000e+02	3.46785052e+11
1.56000000e+02	3.54190454e+11
1.57000000e+02	3.61711606e+11
1.58000000e+02	3.69349227e+11
1.59000000e+02	3.77104013e+11
1.60000000e+02	3.84976638e+11
1.61000000e+02	3.92967752e+11
1.62000000e+02	4.01077986e+11
1.63000000e+02	4.09307942e+11
1.64000000e+02	4.17658202e+11
1.65000000e+02	4.26129321e+11
1.66000000e+02	4.34721830e+11
1.67000000e+02	4.43436232e+11
1.68000000e+02	4.52273006e+11
1.69000000e+02	4.61232605e+11
1.70000000e+02	4.70315451e+11
1.71000000e+02	4.79521943e+11
1.72000000e+02	4.88852448e+11
1.73000000e+02	4.98307307e+11
1.74000000e+02	5.07886832e+11
1.75000000e+02	5.17591303e+11
1.76000000e+02	5.27420973e+11
1.77000000e+02	5.37376064e+11
1.78000000e+02	5.47456768e+11
1.79000000e+02	5.57663244e+11
1.80000000e+02	5.67995623e+11
1.81000000e+02	5.78454001e+11
1.82000000e+02	5.89038445e+11
1.83000000e+02	5.99748989e+11
1.84000000e+02	6.10585633e+11
1.85000000e+02	6.21548346e+11
1.86000000e+02	6.32637064e+11
1.87000000e+02	6.43851688e+11
1.88000000e+02	6.55192087e+11
1.89000000e+02	6.66658096e+11
1.90000000e+02	6.78249516e+11
1.91000000e+02	6.89966114e+11
1.92000000e+02	7.01807623e+11
1.93000000e+02	7.13773741e+11
1.94000000e+02	7.25864131e+11
1.95000000e+02	7.38078423e+11
1.96000000e+02	7.50416211e+11
1.97000000e+02	7.62877055e+11
1.98000000e+02	7.75460479e+11
1.99000000e+02	7.88165972e+11
2.00000000e+02	8.00992990e+11
2.01000000e+02	8.13940952e+11
2.02000000e+02	8.27009243e+11
2.03000000e+02	8.40197212e+11
2.04000000e+02	8.53504174e+11
2.05000000e+02	8.66929409e+11
2.06000000e+02	8.80472163e+11
2.07000000e+02	8.94131644e+11
2.08000000e+02	9.07907030e+11
2.09000000e+02	9.21797461e+11
2.10000000e+02	9.35802045e+11
2.11000000e+02	9.49919853e+11
2.12000000e+02	9.64149925e+11
2.13000000e+02	9.78491266e+11
2.14000000e+02	9.92942846e+11
2.15000000e+02	1.00750360e+12
2.16000000e+02	1.02217244e+12
2.17000000e+02	1.03694824e+12
2.18000000e+02	1.05182982e+12
2.19000000e+02	1.06681601e+12
2.20000000e+02	1.08190557e+12
2.21000000e+02	1.09709725e+12
2.22000000e+02	1.11238976e+12
2.23000000e+02	1.12778178e+12
2.24000000e+02	1.14327196e+12
2.25000000e+02	1.15885892e+12
2.26000000e+02	1.17454125e+12
2.27000000e+02	1.19031751e+12
2.28000000e+02	1.20618624e+12
2.29000000e+02	1.22214592e+12
2.30000000e+02	1.23819505e+12
2.31000000e+02	1.25433206e+12
2.32000000e+02	1.27055538e+12
2.33000000e+02	1.28686340e+12
2.34000000e+02	1.30325449e+12
2.35000000e+02	1.31972698e+12
2.36000000e+02	1.33627920e+12
2.37000000e+02	1.35290944e+12
2.38000000e+02	1.36961595e+12
2.39000000e+02	1.38639700e+12
2.40000000e+02	1.40325079e+12
2.41000000e+02	1.42017553e+12
2.42000000e+02	1.43716939e+12
2.43000000e+02	1.45423053e+12
2.44000000e+02	1.47135709e+12
2.45000000e+02	1.48854718e+12
2.46000000e+02	1.50579890e+12
2.47000000e+02	1.52311033e+12
2.48000000e+02	1.54047952e+12
2.49000000e+02	1.55790452e+12
2.50000000e+02	1.57538336e+12
2.51000000e+02	1.59291404e+12
2.52000000e+02	1.61049457e+12
2.53000000e+02	1.62812291e+12
2.54000000e+02	1.64579705e+12
2.55000000e+02	1.66351493e+12
2.56000000e+02	1.68127449e+12
2.57000000e+02	1.69907367e+12
2.58000000e+02	1.71691038e+12
2.59000000e+02	1.73478254e+12
2.60000000e+02	1.75268804e+12
2.61000000e+02	1.77062478e+12
2.62000000e+02	1.78859063e+12
2.63000000e+02	1.80658347e+12
2.64000000e+02	1.82460118e+12
2.65000000e+02	1.84264161e+12
2.66000000e+02	1.86070263e+12
2.67000000e+02	1.87878209e+12
2.68000000e+02	1.89687785e+12
2.69000000e+02	1.91498775e+12
2.70000000e+02	1.93310963e+12
2.71000000e+02	1.95124136e+12
2.72000000e+02	1.96938077e+12
2.73000000e+02	1.98752570e+12
2.74000000e+02	2.00567402e+12
2.75000000e+02	2.02382357e+12
2.76000000e+02	2.04197220e+12
2.77000000e+02	2.06011778e+12
2.78000000e+02	2.07825815e+12
2.79000000e+02	2.09639121e+12
2.80000000e+02	2.11451480e+12
2.81000000e+02	2.13262683e+12
2.82000000e+02	2.15072517e+12
2.83000000e+02	2.16880772e+12
2.84000000e+02	2.18687240e+12
2.85000000e+02	2.20491711e+12
2.86000000e+02	2.22293979e+12
2.87000000e+02	2.24093837e+12
2.88000000e+02	2.25891081e+12
2.89000000e+02	2.27685507e+12
2.90000000e+02	2.29476914e+12
2.91000000e+02	2.31265100e+12
2.92000000e+02	2.33049867e+12
2.93000000e+02	2.34831017e+12
2.94000000e+02	2.36608355e+12
2.95000000e+02	2.38381687e+12
2.96000000e+02	2.40150820e+12
2.97000000e+02	2.41915566e+12
2.98000000e+02	2.43675735e+12
2.99000000e+02	2.45431141e+12
3.00000000e+02	2.47181602e+12
3.01000000e+02	2.48926936e+12
3.02000000e+02	2.50666962e+12
3.03000000e+02	2.52401504e+12
3.04000000e+02	2.54130389e+12
3.05000000e+02	2.55853443e+12
3.06000000e+02	2.57570497e+12
3.07000000e+02	2.59281384e+12
3.08000000e+02	2.60985941e+12
3.09000000e+02	2.62684006e+12
3.10000000e+02	2.64375420e+12
3.11000000e+02	2.66060028e+12
3.12000000e+02	2.67737677e+12
3.13000000e+02	2.69408217e+12
3.14000000e+02	2.71071501e+12
3.15000000e+02	2.72727385e+12
3.16000000e+02	2.74375729e+12
3.17000000e+02	2.76016396e+12
3.18000000e+02	2.77649251e+12
3.19000000e+02	2.79274163e+12
3.20000000e+02	2.80891005e+12
3.21000000e+02	2.82499652e+12
3.22000000e+02	2.84099983e+12
3.23000000e+02	2.85691880e+12
3.24000000e+02	2.87275229e+12
3.25000000e+02	2.88849920e+12
3.26000000e+02	2.90415845e+12
3.27000000e+02	2.91972899e+12
3.28000000e+02	2.93520983e+12
3.29000000e+02	2.95060000e+12
3.30000000e+02	2.96589855e+12
3.31000000e+02	2.98110458e+12
3.32000000e+02	2.99621724e+12
3.33000000e+02	3.01123568e+12
3.34000000e+02	3.02615912e+12
3.35000000e+02	3.04098677e+12
3.36000000e+02	3.05571792e+12
3.37000000e+02	3.07035187e+12
3.38000000e+02	3.08488794e+12
3.39000000e+02	3.09932551e+12
3.40000000e+02	3.11366398e+12
3.41000000e+02	3.12790278e+12
3.42000000e+02	3.14204136e+12
3.43000000e+02	3.15607923e+12
3.44000000e+02	3.17001589e+12
3.45000000e+02	3.18385089e+12
3.46000000e+02	3.19758382e+12
3.47000000e+02	3.21121427e+12
3.48000000e+02	3.22474186e+12
3.49000000e+02	3.23816625e+12
3.50000000e+02	3.25148710e+12
3.51000000e+02	3.26470412e+12
3.52000000e+02	3.27781701e+12
3.53000000e+02	3.29082550e+12
3.54000000e+02	3.30372935e+12
3.55000000e+02	3.31652831e+12
3.56000000e+02	3.32922216e+12
3.57000000e+02	3.34181069e+12
3.58000000e+02	3.35429369e+12
3.59000000e+02	3.36667098e+12
3.60000000e+02	3.37894236e+12
3.61000000e+02	3.39110764e+12
3.62000000e+02	3.40316665e+12
3.63000000e+02	3.41511919e+12
3.64000000e+02	3.42696509e+12
3.65000000e+02	3.43870413e+12
3.66000000e+02	3.45033613e+12
3.67000000e+02	3.46186087e+12
3.68000000e+02	3.47327812e+12
3.69000000e+02	3.48458765e+12
3.70000000e+02	3.49578919e+12
3.71000000e+02	3.50688246e+12
3.72000000e+02	3.51786716e+12
3.73000000e+02	3.52874295e+12
3.74000000e+02	3.53950948e+12
3.75000000e+02	3.55016636e+12
3.76000000e+02	3.56071314e+12
3.77000000e+02	3.57114937e+12
3.78000000e+02	3.58147454e+12
3.79000000e+02	3.59168810e+12
3.80000000e+02	3.60178945e+12
3.81000000e+02	3.61177794e+12
3.82000000e+02	3.62165287e+12
3.83000000e+02	3.63141348e+12
3.84000000e+02	3.64105897e+12
3.85000000e+02	3.65058845e+12
3.86000000e+02	3.66000099e+12
3.87000000e+02	3.66929559e+12
3.88000000e+02	3.67847116e+12
3.89000000e+02	3.68752658e+12
3.90000000e+02	3.69646060e+12
3.91000000e+02	3.70527195e+12
3.92000000e+02	3.71395926e+12
3.93000000e+02	3.72252105e+12
3.94000000e+02	3.73095581e+12
3.95000000e+02	3.73926191e+12
3.96000000e+02	3.74743764e+12
3.97000000e+02	3.75548121e+12
3.98000000e+02	3.76339074e+12
3.99000000e+02	3.77116425e+12
4.00000000e+02	3.77879967e+12
4.01000000e+02	3.78629485e+12
4.02000000e+02	3.79364753e+12
4.03000000e+02	3.80085536e+12
4.04000000e+02	3.80791590e+12
4.05000000e+02	3.81482662e+12
4.06000000e+02	3.82158487e+12
4.07000000e+02	3.82818793e+12
4.08000000e+02	3.83463296e+12
4.09000000e+02	3.84091706e+12
4.10000000e+02	3.84703720e+12
4.11000000e+02	3.85299028e+12
4.12000000e+02	3.85877309e+12
4.13000000e+02	3.86438234e+12
4.14000000e+02	3.86981464e+12
4.15000000e+02	3.87506652e+12
4.16000000e+02	3.88013442e+12
4.17000000e+02	3.88501470e+12
4.18000000e+02	3.88970364e+12
4.19000000e+02	3.89419741e+12
4.20000000e+02	3.89849215e+12
4.21000000e+02	3.90258389e+12
4.22000000e+02	3.90646860e+12
4.23000000e+02	3.91014218e+12
4.24000000e+02	3.91360047e+12
4.25000000e+02	3.91683924e+12
4.26000000e+02	3.91985422e+12
4.27000000e+02	3.92264106e+12
4.28000000e+02	3.92519539e+12
4.29000000e+02	3.92751277e+12
4.30000000e+02	3.92958873e+12
4.31000000e+02	3.93141878e+12
4.32000000e+02	3.93299837e+12
4.33000000e+02	3.93432295e+12
4.34000000e+02	3.93538794e+12
4.35000000e+02	3.93618874e+12
4.36000000e+02	3.93672075e+12
4.37000000e+02	3.93697936e+12
4.38000000e+02	3.93695997e+12
4.39000000e+02	3.93665797e+12
4.40000000e+02	3.93606880e+12
4.41000000e+02	3.93518787e+12
4.42000000e+02	3.93401067e+12
4.43000000e+02	3.93253269e+12
4.44000000e+02	3.93074945e+12
4.45000000e+02	3.92865655e+12
4.46000000e+02	3.92624962e+12
4.47000000e+02	3.92352435e+12
4.48000000e+02	3.92047649e+12
4.49000000e+02	3.91710188e+12
4.50000000e+02	3.91339642e+12
4.51000000e+02	3.90935610e+12
4.52000000e+02	3.90497702e+12
4.53000000e+02	3.90025534e+12
4.54000000e+02	3.89518736e+12
4.55000000e+02	3.88976948e+12
4.56000000e+02	3.88399821e+12
4.57000000e+02	3.87787019e+12
4.58000000e+02	3.87138219e+12
4.59000000e+02	3.86453112e+12
4.60000000e+02	3.85731404e+12
4.61000000e+02	3.84972815e+12
4.62000000e+02	3.84177081e+12
4.63000000e+02	3.83343955e+12
4.64000000e+02	3.82473206e+12
4.65000000e+02	3.81564621e+12
4.66000000e+02	3.80618006e+12
4.67000000e+02	3.79633184e+12
4.68000000e+02	3.78610001e+12
4.69000000e+02	3.77548319e+12
4.70000000e+02	3.76448024e+12
4.71000000e+02	3.75309022e+12
4.72000000e+02	3.74131241e+12
4.73000000e+02	3.72914634e+12
4.74000000e+02	3.71659175e+12
4.75000000e+02	3.70364863e+12
4.76000000e+02	3.69031723e+12
4.77000000e+02	3.67659804e+12
4.78000000e+02	3.66249181e+12
4.79000000e+02	3.64799959e+12
4.80000000e+02	3.63312267e+12
4.81000000e+02	3.61786266e+12
4.82000000e+02	3.60222143e+12
4.83000000e+02	3.58620117e+12
4.84000000e+02	3.56980438e+12
4.85000000e+02	3.55303387e+12
4.86000000e+02	3.53589277e+12
4.87000000e+02	3.51838456e+12
4.88000000e+02	3.50051303e+12
4.89000000e+02	3.48228234e+12
4.90000000e+02	3.46369701e+12
4.91000000e+02	3.44476189e+12
4.92000000e+02	3.42548222e+12
4.93000000e+02	3.40586362e+12
4.94000000e+02	3.38591208e+12
4.95000000e+02	3.36563398e+12
4.96000000e+02	3.34503608e+12
4.97000000e+02	3.32412554e+12
4.98000000e+02	3.30290992e+12
4.99000000e+02	3.28139716e+12
5.00000000e+02	3.25959561e+12
5.01000000e+02	3.23751402e+12
5.02000000e+02	3.21516151e+12
5.03000000e+02	3.19254759e+12
5.04000000e+02	3.16968217e+12
5.05000000e+02	3.14657550e+12
5.06000000e+02	3.12323821e+12
5.07000000e+02	3.09968126e+12
5.08000000e+02	3.07591596e+12
5.09000000e+02	3.05195390e+12
5.10000000e+02	3.02780699e+12
5.11000000e+02	3.00348738e+12
5.12000000e+02	2.97900748e+12
5.13000000e+02	2.95437992e+12
5.14000000e+02	2.92961749e+12
5.15000000e+02	2.90473315e+12
5.16000000e+02	2.87973997e+12
5.17000000e+02	2.85465110e+12
5.18000000e+02	2.82947973e+12
5.19000000e+02	2.80423906e+12
5.20000000e+02	2.77894225e+12
5.21000000e+02	2.75360238e+12
5.22000000e+02	2.72823240e+12
5.23000000e+02	2.70284512e+12
5.24000000e+02	2.67745313e+12
5.25000000e+02	2.65206877e+12
5.26000000e+02	2.62670410e+12
5.27000000e+02	2.60137086e+12
5.28000000e+02	2.57608043e+12
5.29000000e+02	2.55084377e+12
5.30000000e+02	2.52567144e+12
5.31000000e+02	2.50057351e+12
5.32000000e+02	2.47555958e+12
5.33000000e+02	2.45063872e+12
5.34000000e+02	2.42581948e+12
5.35000000e+02	2.40110984e+12
5.36000000e+02	2.37651722e+12
5.37000000e+02	2.35204845e+12
5.38000000e+02	2.32770977e+12
5.39000000e+02	2.30350684e+12
5.40000000e+02	2.27944471e+12
5.41000000e+02	2.25552782e+12
5.42000000e+02	2.23176006e+12
5.43000000e+02	2.20814469e+12
5.44000000e+02	2.18468442e+12
5.45000000e+02	2.16138142e+12
5.46000000e+02	2.13823726e+12
5.47000000e+02	2.11525304e+12
5.48000000e+02	2.09242932e+12
5.49000000e+02	2.06976616e+12
5.50000000e+02	2.04726317e+12
5.51000000e+02	2.02491952e+12
5.52000000e+02	2.00273395e+12
5.53000000e+02	1.98070478e+12
5.54000000e+02	1.95883000e+12
5.55000000e+02	1.93710722e+12
5.56000000e+02	1.91553375e+12
5.57000000e+02	1.89410658e+12
5.58000000e+02	1.87282245e+12
5.59000000e+02	1.85167783e+12
5.60000000e+02	1.83066899e+12
5.61000000e+02	1.80979199e+12
5.62000000e+02	1.78904271e+12
5.63000000e+02	1.76841690e+12
5.64000000e+02	1.74791015e+12
5.65000000e+02	1.72751796e+12
5.66000000e+02	1.70723575e+12
5.67000000e+02	1.68705887e+12
5.68000000e+02	1.66698262e+12
5.69000000e+02	1.64700229e+12
5.70000000e+02	1.62711313e+12
5.71000000e+02	1.60731046e+12
5.72000000e+02	1.58758958e+12
5.73000000e+02	1.56794587e+12
5.74000000e+02	1.54837477e+12
5.75000000e+02	1.52887180e+12
5.76000000e+02	1.50943260e+12
5.77000000e+02	1.49005291e+12
5.78000000e+02	1.47072862e+12
5.79000000e+02	1.45145576e+12
5.80000000e+02	1.43223054e+12
5.81000000e+02	1.41304933e+12
5.82000000e+02	1.39390874e+12
5.83000000e+02	1.37480555e+12
5.84000000e+02	1.35573680e+12
5.85000000e+02	1.33669977e+12
5.86000000e+02	1.31769197e+12
5.87000000e+02	1.29871121e+12
5.88000000e+02	1.27975558e+12
5.89000000e+02	1.26082345e+12
5.90000000e+02	1.24191352e+12
5.91000000e+02	1.22302478e+12
5.92000000e+02	1.20415659e+12
5.93000000e+02	1.18530862e+12
5.94000000e+02	1.16648090e+12
5.95000000e+02	1.14767381e+12
5.96000000e+02	1.12888810e+12
5.97000000e+02	1.11012488e+12
5.98000000e+02	1.09138563e+12
5.99000000e+02	1.07267222e+12
6.00000000e+02	1.05398690e+12
6.01000000e+02	1.03533226e+12
6.02000000e+02	1.01671129e+12
6.03000000e+02	9.98127365e+11
6.04000000e+02	9.79584199e+11
6.05000000e+02	9.61085876e+11
6.06000000e+02	9.42636818e+11
6.07000000e+02	9.24241794e+11
6.08000000e+02	9.05905909e+11
6.09000000e+02	8.87634585e+11
6.10000000e+02	8.69433527e+11
6.11000000e+02	8.51308700e+11
6.12000000e+02	8.33266344e+11
6.13000000e+02	8.15312970e+11
6.14000000e+02	7.97455306e+11
6.15000000e+02	7.79700213e+11
6.16000000e+02	7.62054698e+11
6.17000000e+02	7.44526002e+11
6.18000000e+02	7.27121526e+11
6.19000000e+02	7.09848618e+11
6.20000000e+02	6.92714601e+11
6.21000000e+02	6.75727109e+11
6.22000000e+02	6.58893424e+11
6.23000000e+02	6.42221155e+11
6.24000000e+02	6.25717630e+11
6.25000000e+02	6.09390078e+11
6.26000000e+02	5.93245599e+11
6.27000000e+02	5.77291283e+11
6.28000000e+02	5.61533977e+11
6.29000000e+02	5.45980148e+11
6.30000000e+02	5.30636070e+11
6.31000000e+02	5.15508083e+11
6.32000000e+02	5.00601854e+11
6.33000000e+02	4.85922745e+11
6.34000000e+02	4.71476192e+11
6.35000000e+02	4.57266819e+11
6.36000000e+02	4.43299057e+11
6.37000000e+02	4.29577190e+11
6.38000000e+02	4.16104623e+11
6.39000000e+02	4.02884875e+11
6.40000000e+02	3.89920767e+11
6.41000000e+02	3.77214663e+11
6.42000000e+02	3.64768854e+11
6.43000000e+02	3.52584698e+11
6.44000000e+02	3.40663651e+11
6.45000000e+02	3.29006413e+11
6.46000000e+02	3.17613390e+11
6.47000000e+02	3.06484678e+11
6.48000000e+02	2.95619719e+11
6.49000000e+02	2.85017929e+11
6.50000000e+02	2.74677959e+11
6.51000000e+02	2.64598473e+11
6.52000000e+02	2.54777463e+11
6.53000000e+02	2.45212804e+11
6.54000000e+02	2.35901936e+11
6.55000000e+02	2.26842020e+11
6.56000000e+02	2.18029966e+11
6.57000000e+02	2.09462310e+11
6.58000000e+02	2.01135453e+11
6.59000000e+02	1.93045407e+11
