# Profil de FluxX au temps 2.009999999999998e-12 
# simu : /Volumes/MERCURE/JOBS/Zeq1_tanh_50mic_7p5e19_B0_20ps/GNU/FluxX@y-c.set
# col 0 : abscisse (um)
# col 1 : FluxX (W/cm2)
0.00000000e+00	0.00000000e+00
1.00000000e+00	1.12173579e+05
2.00000000e+00	1.25717379e+05
3.00000000e+00	3.79282447e+05
4.00000000e+00	4.62825236e+05
5.00000000e+00	5.35179798e+05
6.00000000e+00	6.04565436e+05
7.00000000e+00	6.73599986e+05
8.00000000e+00	7.43125121e+05
9.00000000e+00	8.13416652e+05
1.00000000e+01	8.84632613e+05
1.10000000e+01	9.56904131e+05
1.20000000e+01	1.03033106e+06
1.30000000e+01	1.10492802e+06
1.40000000e+01	1.18058485e+06
1.50000000e+01	1.25710530e+06
1.60000000e+01	1.33435314e+06
1.70000000e+01	1.41236720e+06
1.80000000e+01	1.49135009e+06
1.90000000e+01	1.57154392e+06
2.00000000e+01	1.65315280e+06
2.10000000e+01	1.73637612e+06
2.20000000e+01	1.82150289e+06
2.30000000e+01	1.90895102e+06
2.40000000e+01	1.99920964e+06
2.50000000e+01	2.09273211e+06
2.60000000e+01	2.18985423e+06
2.70000000e+01	2.29077455e+06
2.80000000e+01	2.39558002e+06
2.90000000e+01	2.50430141e+06
3.00000000e+01	2.61695559e+06
3.10000000e+01	2.73359239e+06
3.20000000e+01	2.85431906e+06
3.30000000e+01	2.97931605e+06
3.40000000e+01	3.10884323e+06
3.50000000e+01	3.24322387e+06
3.60000000e+01	3.38282109e+06
3.70000000e+01	3.52801258e+06
3.80000000e+01	3.67917214e+06
3.90000000e+01	3.83666553e+06
4.00000000e+01	4.00084526e+06
4.10000000e+01	4.17204425e+06
4.20000000e+01	4.35056459e+06
4.30000000e+01	4.53666615e+06
4.40000000e+01	4.73056305e+06
4.50000000e+01	4.93243370e+06
4.60000000e+01	5.14244134e+06
4.70000000e+01	5.36075755e+06
4.80000000e+01	5.58758353e+06
4.90000000e+01	5.82316729e+06
5.00000000e+01	6.06780523e+06
5.10000000e+01	6.32184280e+06
5.20000000e+01	6.58566941e+06
5.30000000e+01	6.85970694e+06
5.40000000e+01	7.14440786e+06
5.50000000e+01	7.44024669e+06
5.60000000e+01	7.74771813e+06
5.70000000e+01	8.06733633e+06
5.80000000e+01	8.39963274e+06
5.90000000e+01	8.74515870e+06
6.00000000e+01	9.10448411e+06
6.10000000e+01	9.47819911e+06
6.20000000e+01	9.86691633e+06
6.30000000e+01	1.02712708e+07
6.40000000e+01	1.06919213e+07
6.50000000e+01	1.11295522e+07
6.60000000e+01	1.15848739e+07
6.70000000e+01	1.20586261e+07
6.80000000e+01	1.25515750e+07
6.90000000e+01	1.30645199e+07
7.00000000e+01	1.35982895e+07
7.10000000e+01	1.41537467e+07
7.20000000e+01	1.47317881e+07
7.30000000e+01	1.53333466e+07
7.40000000e+01	1.59593927e+07
7.50000000e+01	1.66109344e+07
7.60000000e+01	1.72890208e+07
7.70000000e+01	1.79947429e+07
7.80000000e+01	1.87292355e+07
7.90000000e+01	1.94936785e+07
8.00000000e+01	2.02892981e+07
8.10000000e+01	2.11173712e+07
8.20000000e+01	2.19792252e+07
8.30000000e+01	2.28762418e+07
8.40000000e+01	2.38098581e+07
8.50000000e+01	2.47815690e+07
8.60000000e+01	2.57929304e+07
8.70000000e+01	2.68455624e+07
8.80000000e+01	2.79411494e+07
8.90000000e+01	2.90814445e+07
9.00000000e+01	3.02682736e+07
9.10000000e+01	3.15035358e+07
9.20000000e+01	3.27892080e+07
9.30000000e+01	3.41273469e+07
9.40000000e+01	3.55200943e+07
9.50000000e+01	3.69696793e+07
9.60000000e+01	3.84784210e+07
9.70000000e+01	4.00487342e+07
9.80000000e+01	4.16831305e+07
9.90000000e+01	4.33842260e+07
1.00000000e+02	4.51547425e+07
1.01000000e+02	4.69975119e+07
1.02000000e+02	4.89154839e+07
1.03000000e+02	5.09117274e+07
1.04000000e+02	5.29894360e+07
1.05000000e+02	5.51519341e+07
1.06000000e+02	5.74026819e+07
1.07000000e+02	5.97452809e+07
1.08000000e+02	6.21834792e+07
1.09000000e+02	6.47211769e+07
1.10000000e+02	6.73624356e+07
1.11000000e+02	7.01114810e+07
1.12000000e+02	7.29727111e+07
1.13000000e+02	7.59507048e+07
1.14000000e+02	7.90502255e+07
1.15000000e+02	8.22762333e+07
1.16000000e+02	8.56338889e+07
1.17000000e+02	8.91285644e+07
1.18000000e+02	9.27658515e+07
1.19000000e+02	9.65515693e+07
1.20000000e+02	1.00491774e+08
1.21000000e+02	1.04592770e+08
1.22000000e+02	1.08861118e+08
1.23000000e+02	1.13303648e+08
1.24000000e+02	1.17927465e+08
1.25000000e+02	1.22739969e+08
1.26000000e+02	1.27748857e+08
1.27000000e+02	1.32962143e+08
1.28000000e+02	1.38388167e+08
1.29000000e+02	1.44035609e+08
1.30000000e+02	1.49913504e+08
1.31000000e+02	1.56031255e+08
1.32000000e+02	1.62398647e+08
1.33000000e+02	1.69025868e+08
1.34000000e+02	1.75923518e+08
1.35000000e+02	1.83102631e+08
1.36000000e+02	1.90574690e+08
1.37000000e+02	1.98351648e+08
1.38000000e+02	2.06445945e+08
1.39000000e+02	2.14870527e+08
1.40000000e+02	2.23638870e+08
1.41000000e+02	2.32764998e+08
1.42000000e+02	2.42263509e+08
1.43000000e+02	2.52149594e+08
1.44000000e+02	2.62439064e+08
1.45000000e+02	2.73148376e+08
1.46000000e+02	2.84294659e+08
1.47000000e+02	2.95895737e+08
1.48000000e+02	3.07970163e+08
1.49000000e+02	3.20537247e+08
1.50000000e+02	3.33617086e+08
1.51000000e+02	3.47230595e+08
1.52000000e+02	3.61399545e+08
1.53000000e+02	3.76146589e+08
1.54000000e+02	3.91495310e+08
1.55000000e+02	4.07470248e+08
1.56000000e+02	4.24096944e+08
1.57000000e+02	4.41401983e+08
1.58000000e+02	4.59413030e+08
1.59000000e+02	4.78158880e+08
1.60000000e+02	4.97669500e+08
1.61000000e+02	5.17976079e+08
1.62000000e+02	5.39111077e+08
1.63000000e+02	5.61108277e+08
1.64000000e+02	5.84002839e+08
1.65000000e+02	6.07831354e+08
1.66000000e+02	6.32631905e+08
1.67000000e+02	6.58444127e+08
1.68000000e+02	6.85309268e+08
1.69000000e+02	7.13270257e+08
1.70000000e+02	7.42371772e+08
1.71000000e+02	7.72660310e+08
1.72000000e+02	8.04184262e+08
1.73000000e+02	8.36993989e+08
1.74000000e+02	8.71141902e+08
1.75000000e+02	9.06682547e+08
1.76000000e+02	9.43672690e+08
1.77000000e+02	9.82171408e+08
1.78000000e+02	1.02224018e+09
1.79000000e+02	1.06394300e+09
1.80000000e+02	1.10734643e+09
1.81000000e+02	1.15251979e+09
1.82000000e+02	1.19953519e+09
1.83000000e+02	1.24846767e+09
1.84000000e+02	1.29939534e+09
1.85000000e+02	1.35239947e+09
1.86000000e+02	1.40756464e+09
1.87000000e+02	1.46497887e+09
1.88000000e+02	1.52473376e+09
1.89000000e+02	1.58692463e+09
1.90000000e+02	1.65165067e+09
1.91000000e+02	1.71901510e+09
1.92000000e+02	1.78912534e+09
1.93000000e+02	1.86209317e+09
1.94000000e+02	1.93803489e+09
1.95000000e+02	2.01707155e+09
1.96000000e+02	2.09932910e+09
1.97000000e+02	2.18493860e+09
1.98000000e+02	2.27403641e+09
1.99000000e+02	2.36676445e+09
2.00000000e+02	2.46327038e+09
2.01000000e+02	2.56370785e+09
2.02000000e+02	2.66823672e+09
2.03000000e+02	2.77702334e+09
2.04000000e+02	2.89024080e+09
2.05000000e+02	3.00806920e+09
2.06000000e+02	3.13069590e+09
2.07000000e+02	3.25831589e+09
2.08000000e+02	3.39113200e+09
2.09000000e+02	3.52935528e+09
2.10000000e+02	3.67320531e+09
2.11000000e+02	3.82291055e+09
2.12000000e+02	3.97870867e+09
2.13000000e+02	4.14084693e+09
2.14000000e+02	4.30958259e+09
2.15000000e+02	4.48518326e+09
2.16000000e+02	4.66792734e+09
2.17000000e+02	4.85810447e+09
2.18000000e+02	5.05601593e+09
2.19000000e+02	5.26197512e+09
2.20000000e+02	5.47630806e+09
2.21000000e+02	5.69935388e+09
2.22000000e+02	5.93146532e+09
2.23000000e+02	6.17300928e+09
2.24000000e+02	6.42436740e+09
2.25000000e+02	6.68593659e+09
2.26000000e+02	6.95812969e+09
2.27000000e+02	7.24137606e+09
2.28000000e+02	7.53612221e+09
2.29000000e+02	7.84283255e+09
2.30000000e+02	8.16198998e+09
2.31000000e+02	8.49409670e+09
2.32000000e+02	8.83967491e+09
2.33000000e+02	9.19926764e+09
2.34000000e+02	9.57343948e+09
2.35000000e+02	9.96277748e+09
2.36000000e+02	1.03678920e+10
2.37000000e+02	1.07894176e+10
2.38000000e+02	1.12280140e+10
2.39000000e+02	1.16843670e+10
2.40000000e+02	1.21591895e+10
2.41000000e+02	1.26532224e+10
2.42000000e+02	1.31672361e+10
2.43000000e+02	1.37020310e+10
2.44000000e+02	1.42584391e+10
2.45000000e+02	1.48373251e+10
2.46000000e+02	1.54395873e+10
2.47000000e+02	1.60661596e+10
2.48000000e+02	1.67180118e+10
2.49000000e+02	1.73961518e+10
2.50000000e+02	1.81016267e+10
2.51000000e+02	1.88355242e+10
2.52000000e+02	1.95989740e+10
2.53000000e+02	2.03931497e+10
2.54000000e+02	2.12192699e+10
2.55000000e+02	2.20786003e+10
2.56000000e+02	2.29724550e+10
2.57000000e+02	2.39021985e+10
2.58000000e+02	2.48692475e+10
2.59000000e+02	2.58750724e+10
2.60000000e+02	2.69211997e+10
2.61000000e+02	2.80092135e+10
2.62000000e+02	2.91407578e+10
2.63000000e+02	3.03175384e+10
2.64000000e+02	3.15413251e+10
2.65000000e+02	3.28139539e+10
2.66000000e+02	3.41373290e+10
2.67000000e+02	3.55134253e+10
2.68000000e+02	3.69442908e+10
2.69000000e+02	3.84320487e+10
2.70000000e+02	3.99789000e+10
2.71000000e+02	4.15871262e+10
2.72000000e+02	4.32590915e+10
2.73000000e+02	4.49972454e+10
2.74000000e+02	4.68041258e+10
2.75000000e+02	4.86823612e+10
2.76000000e+02	5.06346737e+10
2.77000000e+02	5.26638814e+10
2.78000000e+02	5.47729020e+10
2.79000000e+02	5.69647549e+10
2.80000000e+02	5.92425643e+10
2.81000000e+02	6.16095623e+10
2.82000000e+02	6.40690917e+10
2.83000000e+02	6.66246089e+10
2.84000000e+02	6.92796872e+10
2.85000000e+02	7.20380193e+10
2.86000000e+02	7.49034205e+10
2.87000000e+02	7.78798318e+10
2.88000000e+02	8.09713228e+10
2.89000000e+02	8.41820945e+10
2.90000000e+02	8.75164825e+10
2.91000000e+02	9.09789595e+10
2.92000000e+02	9.45741384e+10
2.93000000e+02	9.83067750e+10
2.94000000e+02	1.02181771e+11
2.95000000e+02	1.06204175e+11
2.96000000e+02	1.10379188e+11
2.97000000e+02	1.14712164e+11
2.98000000e+02	1.19208610e+11
2.99000000e+02	1.23874193e+11
3.00000000e+02	1.28714739e+11
3.01000000e+02	1.33736234e+11
3.02000000e+02	1.38944827e+11
3.03000000e+02	1.44346834e+11
3.04000000e+02	1.49948731e+11
3.05000000e+02	1.55757165e+11
3.06000000e+02	1.61778948e+11
3.07000000e+02	1.68021059e+11
3.08000000e+02	1.74490643e+11
3.09000000e+02	1.81195013e+11
3.10000000e+02	1.88141648e+11
3.11000000e+02	1.95338192e+11
3.12000000e+02	2.02792450e+11
3.13000000e+02	2.10512390e+11
3.14000000e+02	2.18506140e+11
3.15000000e+02	2.26781979e+11
3.16000000e+02	2.35348344e+11
3.17000000e+02	2.44213814e+11
3.18000000e+02	2.53387116e+11
3.19000000e+02	2.62877113e+11
3.20000000e+02	2.72692799e+11
3.21000000e+02	2.82843295e+11
3.22000000e+02	2.93337838e+11
3.23000000e+02	3.04185776e+11
3.24000000e+02	3.15396559e+11
3.25000000e+02	3.26979726e+11
3.26000000e+02	3.38944899e+11
3.27000000e+02	3.51301767e+11
3.28000000e+02	3.64060079e+11
3.29000000e+02	3.77229627e+11
3.30000000e+02	3.90820235e+11
3.31000000e+02	4.04841741e+11
3.32000000e+02	4.19303985e+11
3.33000000e+02	4.34216788e+11
3.34000000e+02	4.49589940e+11
3.35000000e+02	4.65433175e+11
3.36000000e+02	4.81756159e+11
3.37000000e+02	4.98568461e+11
3.38000000e+02	5.15879540e+11
3.39000000e+02	5.33698717e+11
3.40000000e+02	5.52035153e+11
3.41000000e+02	5.70897828e+11
3.42000000e+02	5.90295512e+11
3.43000000e+02	6.10236741e+11
3.44000000e+02	6.30729790e+11
3.45000000e+02	6.51782646e+11
3.46000000e+02	6.73402979e+11
3.47000000e+02	6.95598114e+11
3.48000000e+02	7.18375000e+11
3.49000000e+02	7.41740183e+11
3.50000000e+02	7.65699769e+11
3.51000000e+02	7.90259400e+11
3.52000000e+02	8.15424217e+11
3.53000000e+02	8.41198831e+11
3.54000000e+02	8.67587286e+11
3.55000000e+02	8.94593035e+11
3.56000000e+02	9.22218897e+11
3.57000000e+02	9.50467032e+11
3.58000000e+02	9.79338905e+11
3.59000000e+02	1.00883525e+12
3.60000000e+02	1.03895605e+12
3.61000000e+02	1.06970049e+12
3.62000000e+02	1.10106693e+12
3.63000000e+02	1.13305288e+12
3.64000000e+02	1.16565497e+12
3.65000000e+02	1.19886889e+12
3.66000000e+02	1.23268942e+12
3.67000000e+02	1.26711034e+12
3.68000000e+02	1.30212446e+12
3.69000000e+02	1.33772354e+12
3.70000000e+02	1.37389830e+12
3.71000000e+02	1.41063839e+12
3.72000000e+02	1.44793235e+12
3.73000000e+02	1.48576764e+12
3.74000000e+02	1.52413055e+12
3.75000000e+02	1.56300623e+12
3.76000000e+02	1.60237868e+12
3.77000000e+02	1.64223071e+12
3.78000000e+02	1.68254393e+12
3.79000000e+02	1.72329877e+12
3.80000000e+02	1.76447443e+12
3.81000000e+02	1.80604893e+12
3.82000000e+02	1.84799904e+12
3.83000000e+02	1.89030034e+12
3.84000000e+02	1.93292718e+12
3.85000000e+02	1.97585272e+12
3.86000000e+02	2.01904890e+12
3.87000000e+02	2.06248647e+12
3.88000000e+02	2.10613500e+12
3.89000000e+02	2.14996289e+12
3.90000000e+02	2.19393739e+12
3.91000000e+02	2.23802461e+12
3.92000000e+02	2.28218954e+12
3.93000000e+02	2.32639611e+12
3.94000000e+02	2.37060715e+12
3.95000000e+02	2.41478449e+12
3.96000000e+02	2.45888892e+12
3.97000000e+02	2.50288029e+12
3.98000000e+02	2.54671750e+12
3.99000000e+02	2.59035856e+12
4.00000000e+02	2.63376061e+12
4.01000000e+02	2.67688000e+12
4.02000000e+02	2.71967228e+12
4.03000000e+02	2.76209232e+12
4.04000000e+02	2.80409427e+12
4.05000000e+02	2.84563168e+12
4.06000000e+02	2.88665755e+12
4.07000000e+02	2.92712433e+12
4.08000000e+02	2.96698404e+12
4.09000000e+02	3.00618829e+12
4.10000000e+02	3.04468836e+12
4.11000000e+02	3.08243526e+12
4.12000000e+02	3.11937978e+12
4.13000000e+02	3.15547256e+12
4.14000000e+02	3.19066420e+12
4.15000000e+02	3.22490527e+12
4.16000000e+02	3.25814639e+12
4.17000000e+02	3.29033835e+12
4.18000000e+02	3.32143213e+12
4.19000000e+02	3.35137902e+12
4.20000000e+02	3.38013065e+12
4.21000000e+02	3.40763911e+12
4.22000000e+02	3.43385701e+12
4.23000000e+02	3.45873757e+12
4.24000000e+02	3.48223469e+12
4.25000000e+02	3.50430305e+12
4.26000000e+02	3.52489818e+12
4.27000000e+02	3.54397656e+12
4.28000000e+02	3.56149572e+12
4.29000000e+02	3.57741428e+12
4.30000000e+02	3.59169210e+12
4.31000000e+02	3.60429033e+12
4.32000000e+02	3.61517154e+12
4.33000000e+02	3.62429979e+12
4.34000000e+02	3.63164072e+12
4.35000000e+02	3.63716168e+12
4.36000000e+02	3.64083180e+12
4.37000000e+02	3.64262210e+12
4.38000000e+02	3.64250559e+12
4.39000000e+02	3.64045741e+12
4.40000000e+02	3.63645486e+12
4.41000000e+02	3.63047758e+12
4.42000000e+02	3.62250760e+12
4.43000000e+02	3.61252950e+12
4.44000000e+02	3.60053048e+12
4.45000000e+02	3.58650049e+12
4.46000000e+02	3.57043232e+12
4.47000000e+02	3.55232175e+12
4.48000000e+02	3.53216761e+12
4.49000000e+02	3.50997193e+12
4.50000000e+02	3.48574003e+12
4.51000000e+02	3.45948062e+12
4.52000000e+02	3.43120594e+12
4.53000000e+02	3.40093181e+12
4.54000000e+02	3.36867779e+12
4.55000000e+02	3.33446721e+12
4.56000000e+02	3.29832731e+12
4.57000000e+02	3.26028929e+12
4.58000000e+02	3.22038843e+12
4.59000000e+02	3.17866408e+12
4.60000000e+02	3.13515980e+12
4.61000000e+02	3.08992334e+12
4.62000000e+02	3.04300672e+12
4.63000000e+02	2.99446621e+12
4.64000000e+02	2.94436235e+12
4.65000000e+02	2.89275993e+12
4.66000000e+02	2.83972796e+12
4.67000000e+02	2.78533960e+12
4.68000000e+02	2.72967210e+12
4.69000000e+02	2.67280667e+12
4.70000000e+02	2.61482840e+12
4.71000000e+02	2.55582604e+12
4.72000000e+02	2.49589187e+12
4.73000000e+02	2.43512148e+12
4.74000000e+02	2.37361350e+12
4.75000000e+02	2.31146938e+12
4.76000000e+02	2.24879304e+12
4.77000000e+02	2.18569059e+12
4.78000000e+02	2.12226994e+12
4.79000000e+02	2.05864041e+12
4.80000000e+02	1.99491236e+12
4.81000000e+02	1.93119669e+12
4.82000000e+02	1.86760445e+12
4.83000000e+02	1.80424631e+12
4.84000000e+02	1.74123207e+12
4.85000000e+02	1.67867016e+12
4.86000000e+02	1.61666712e+12
4.87000000e+02	1.55532706e+12
4.88000000e+02	1.49475116e+12
4.89000000e+02	1.43503710e+12
4.90000000e+02	1.37627859e+12
4.91000000e+02	1.31856485e+12
4.92000000e+02	1.26198016e+12
4.93000000e+02	1.20660336e+12
4.94000000e+02	1.15250748e+12
4.95000000e+02	1.09975934e+12
4.96000000e+02	1.04841923e+12
4.97000000e+02	9.98540612e+11
4.98000000e+02	9.50169914e+11
4.99000000e+02	9.03346337e+11
5.00000000e+02	8.58101765e+11
5.01000000e+02	8.14460721e+11
5.02000000e+02	7.72440390e+11
5.03000000e+02	7.32050719e+11
5.04000000e+02	6.93294572e+11
5.05000000e+02	6.56167957e+11
5.06000000e+02	6.20660313e+11
5.07000000e+02	5.86754855e+11
5.08000000e+02	5.54428971e+11
5.09000000e+02	5.23654658e+11
5.10000000e+02	4.94399010e+11
5.11000000e+02	4.66624721e+11
5.12000000e+02	4.40290617e+11
5.13000000e+02	4.15352203e+11
5.14000000e+02	3.91762207e+11
5.15000000e+02	3.69471122e+11
5.16000000e+02	3.48427739e+11
5.17000000e+02	3.28579655e+11
5.18000000e+02	3.09873753e+11
5.19000000e+02	2.92256657e+11
5.20000000e+02	2.75675141e+11
5.21000000e+02	2.60076505e+11
5.22000000e+02	2.45408904e+11
5.23000000e+02	2.31621634e+11
5.24000000e+02	2.18665379e+11
5.25000000e+02	2.06492406e+11
5.26000000e+02	1.95056732e+11
5.27000000e+02	1.84314239e+11
5.28000000e+02	1.74222762e+11
5.29000000e+02	1.64742146e+11
5.30000000e+02	1.55834265e+11
5.31000000e+02	1.47463027e+11
5.32000000e+02	1.39594350e+11
5.33000000e+02	1.32196125e+11
5.34000000e+02	1.25238161e+11
5.35000000e+02	1.18692122e+11
5.36000000e+02	1.12531450e+11
5.37000000e+02	1.06731292e+11
5.38000000e+02	1.01268410e+11
5.39000000e+02	9.61211004e+10
5.40000000e+02	9.12691054e+10
5.41000000e+02	8.66935291e+10
5.42000000e+02	8.23767536e+10
5.43000000e+02	7.83023582e+10
5.44000000e+02	7.44550409e+10
5.45000000e+02	7.08205442e+10
5.46000000e+02	6.73855842e+10
5.47000000e+02	6.41377833e+10
5.48000000e+02	6.10656071e+10
5.49000000e+02	5.81583052e+10
5.50000000e+02	5.54058555e+10
5.51000000e+02	5.27989126e+10
5.52000000e+02	5.03287589e+10
5.53000000e+02	4.79872605e+10
5.54000000e+02	4.57668244e+10
5.55000000e+02	4.36603606e+10
5.56000000e+02	4.16612453e+10
5.57000000e+02	3.97632882e+10
5.58000000e+02	3.79607014e+10
5.59000000e+02	3.62480705e+10
5.60000000e+02	3.46203285e+10
5.61000000e+02	3.30727312e+10
5.62000000e+02	3.16008342e+10
5.63000000e+02	3.02004724e+10
5.64000000e+02	2.88677402e+10
5.65000000e+02	2.75989738e+10
5.66000000e+02	2.63907340e+10
5.67000000e+02	2.52397917e+10
5.68000000e+02	2.41431127e+10
5.69000000e+02	2.30978450e+10
5.70000000e+02	2.21013064e+10
5.71000000e+02	2.11509734e+10
5.72000000e+02	2.02444701e+10
5.73000000e+02	1.93795591e+10
5.74000000e+02	1.85541319e+10
5.75000000e+02	1.77662009e+10
5.76000000e+02	1.70138913e+10
5.77000000e+02	1.62954342e+10
5.78000000e+02	1.56091593e+10
5.79000000e+02	1.49534895e+10
5.80000000e+02	1.43269341e+10
5.81000000e+02	1.37280841e+10
5.82000000e+02	1.31556068e+10
5.83000000e+02	1.26082415e+10
5.84000000e+02	1.20847946e+10
5.85000000e+02	1.15841358e+10
5.86000000e+02	1.11051945e+10
5.87000000e+02	1.06469559e+10
5.88000000e+02	1.02084579e+10
5.89000000e+02	9.78878782e+09
5.90000000e+02	9.38707990e+09
5.91000000e+02	9.00251221e+09
5.92000000e+02	8.63430430e+09
5.93000000e+02	8.28171485e+09
5.94000000e+02	7.94403943e+09
5.95000000e+02	7.62060844e+09
5.96000000e+02	7.31078518e+09
5.97000000e+02	7.01396403e+09
5.98000000e+02	6.72956876e+09
5.99000000e+02	6.45705092e+09
6.00000000e+02	6.19588837e+09
6.01000000e+02	5.94558381e+09
6.02000000e+02	5.70566353e+09
6.03000000e+02	5.47567613e+09
6.04000000e+02	5.25519136e+09
6.05000000e+02	5.04379901e+09
6.06000000e+02	4.84110789e+09
6.07000000e+02	4.64674485e+09
6.08000000e+02	4.46035384e+09
6.09000000e+02	4.28159510e+09
6.10000000e+02	4.11014427e+09
6.11000000e+02	3.94569168e+09
6.12000000e+02	3.78794159e+09
6.13000000e+02	3.63661152e+09
6.14000000e+02	3.49143159e+09
6.15000000e+02	3.35214390e+09
6.16000000e+02	3.21850197e+09
6.17000000e+02	3.09027020e+09
6.18000000e+02	2.96722329e+09
6.19000000e+02	2.84914584e+09
6.20000000e+02	2.73583180e+09
6.21000000e+02	2.62708408e+09
6.22000000e+02	2.52271411e+09
6.23000000e+02	2.42254146e+09
6.24000000e+02	2.32639345e+09
6.25000000e+02	2.23410479e+09
6.26000000e+02	2.14551727e+09
6.27000000e+02	2.06047939e+09
6.28000000e+02	1.97884611e+09
6.29000000e+02	1.90047850e+09
6.30000000e+02	1.82524352e+09
6.31000000e+02	1.75301373e+09
6.32000000e+02	1.68366703e+09
6.33000000e+02	1.61708645e+09
6.34000000e+02	1.55315991e+09
6.35000000e+02	1.49177999e+09
6.36000000e+02	1.43284375e+09
6.37000000e+02	1.37625253e+09
6.38000000e+02	1.32191175e+09
6.39000000e+02	1.26973075e+09
6.40000000e+02	1.21962260e+09
6.41000000e+02	1.17150395e+09
6.42000000e+02	1.12529490e+09
6.43000000e+02	1.08091881e+09
6.44000000e+02	1.03830217e+09
6.45000000e+02	9.97374512e+08
6.46000000e+02	9.58068218e+08
6.47000000e+02	9.20318437e+08
6.48000000e+02	8.84062962e+08
6.49000000e+02	8.49242114e+08
6.50000000e+02	8.15798633e+08
6.51000000e+02	7.83677592e+08
6.52000000e+02	7.52826277e+08
6.53000000e+02	7.23194114e+08
6.54000000e+02	6.94732573e+08
6.55000000e+02	6.67395078e+08
6.56000000e+02	6.41136931e+08
6.57000000e+02	6.15915233e+08
6.58000000e+02	5.91688808e+08
6.59000000e+02	5.68418121e+08
