# Profil de FluxX au temps 5.000000000000045e-12 
# simu : /Volumes/MERCURE/JOBS/Zeq1_tanh_50mic_7p5e19_B0_20ps/GNU/FluxX@y-c.set
# col 0 : abscisse (um)
# col 1 : FluxX (W/cm2)
0.00000000e+00	0.00000000e+00
1.00000000e+00	1.69795970e+06
2.00000000e+00	3.30406679e+06
3.00000000e+00	5.16425754e+06
4.00000000e+00	6.85148476e+06
5.00000000e+00	8.53687375e+06
6.00000000e+00	1.02321672e+07
7.00000000e+00	1.19425936e+07
8.00000000e+00	1.36715853e+07
9.00000000e+00	1.54220360e+07
1.00000000e+01	1.71967632e+07
1.10000000e+01	1.89986116e+07
1.20000000e+01	2.08304700e+07
1.30000000e+01	2.26952778e+07
1.40000000e+01	2.45960259e+07
1.50000000e+01	2.65357670e+07
1.60000000e+01	2.85176140e+07
1.70000000e+01	3.05447532e+07
1.80000000e+01	3.26204407e+07
1.90000000e+01	3.47480068e+07
2.00000000e+01	3.69308556e+07
2.10000000e+01	3.91724620e+07
2.20000000e+01	4.14763813e+07
2.30000000e+01	4.38462560e+07
2.40000000e+01	4.62858342e+07
2.50000000e+01	4.87989825e+07
2.60000000e+01	5.13896974e+07
2.70000000e+01	5.40621085e+07
2.80000000e+01	5.68204919e+07
2.90000000e+01	5.96692757e+07
3.00000000e+01	6.26130494e+07
3.10000000e+01	6.56565712e+07
3.20000000e+01	6.88047695e+07
3.30000000e+01	7.20627436e+07
3.40000000e+01	7.54357623e+07
3.50000000e+01	7.89292625e+07
3.60000000e+01	8.25488564e+07
3.70000000e+01	8.63003404e+07
3.80000000e+01	9.01897065e+07
3.90000000e+01	9.42231579e+07
4.00000000e+01	9.84071226e+07
4.10000000e+01	1.02748265e+08
4.20000000e+01	1.07253502e+08
4.30000000e+01	1.11930011e+08
4.40000000e+01	1.16785249e+08
4.50000000e+01	1.21826957e+08
4.60000000e+01	1.27063174e+08
4.70000000e+01	1.32502255e+08
4.80000000e+01	1.38152880e+08
4.90000000e+01	1.44024068e+08
5.00000000e+01	1.50125194e+08
5.10000000e+01	1.56465997e+08
5.20000000e+01	1.63056607e+08
5.30000000e+01	1.69907550e+08
5.40000000e+01	1.77029769e+08
5.50000000e+01	1.84434642e+08
5.60000000e+01	1.92133997e+08
5.70000000e+01	2.00140133e+08
5.80000000e+01	2.08465834e+08
5.90000000e+01	2.17124395e+08
6.00000000e+01	2.26129637e+08
6.10000000e+01	2.35495932e+08
6.20000000e+01	2.45238223e+08
6.30000000e+01	2.55372048e+08
6.40000000e+01	2.65913567e+08
6.50000000e+01	2.76879582e+08
6.60000000e+01	2.88287569e+08
6.70000000e+01	3.00155699e+08
6.80000000e+01	3.12502876e+08
6.90000000e+01	3.25348756e+08
7.00000000e+01	3.38713789e+08
7.10000000e+01	3.52619243e+08
7.20000000e+01	3.67087241e+08
7.30000000e+01	3.82140795e+08
7.40000000e+01	3.97803844e+08
7.50000000e+01	4.14101290e+08
7.60000000e+01	4.31059039e+08
7.70000000e+01	4.48704036e+08
7.80000000e+01	4.67064313e+08
7.90000000e+01	4.86169032e+08
8.00000000e+01	5.06048528e+08
8.10000000e+01	5.26734356e+08
8.20000000e+01	5.48259343e+08
8.30000000e+01	5.70657638e+08
8.40000000e+01	5.93964763e+08
8.50000000e+01	6.18217669e+08
8.60000000e+01	6.43454795e+08
8.70000000e+01	6.69716125e+08
8.80000000e+01	6.97043250e+08
8.90000000e+01	7.25479436e+08
9.00000000e+01	7.55069685e+08
9.10000000e+01	7.85860805e+08
9.20000000e+01	8.17901486e+08
9.30000000e+01	8.51242368e+08
9.40000000e+01	8.85936122e+08
9.50000000e+01	9.22037528e+08
9.60000000e+01	9.59603555e+08
9.70000000e+01	9.98693451e+08
9.80000000e+01	1.03936883e+09
9.90000000e+01	1.08169375e+09
1.00000000e+02	1.12573483e+09
1.01000000e+02	1.17156135e+09
1.02000000e+02	1.21924532e+09
1.03000000e+02	1.26886162e+09
1.04000000e+02	1.32048810e+09
1.05000000e+02	1.37420571e+09
1.06000000e+02	1.43009859e+09
1.07000000e+02	1.48825421e+09
1.08000000e+02	1.54876351e+09
1.09000000e+02	1.61172102e+09
1.10000000e+02	1.67722501e+09
1.11000000e+02	1.74537762e+09
1.12000000e+02	1.81628502e+09
1.13000000e+02	1.89005756e+09
1.14000000e+02	1.96680994e+09
1.15000000e+02	2.04666136e+09
1.16000000e+02	2.12973567e+09
1.17000000e+02	2.21616160e+09
1.18000000e+02	2.30607291e+09
1.19000000e+02	2.39960856e+09
1.20000000e+02	2.49691294e+09
1.21000000e+02	2.59813605e+09
1.22000000e+02	2.70343371e+09
1.23000000e+02	2.81296779e+09
1.24000000e+02	2.92690641e+09
1.25000000e+02	3.04542417e+09
1.26000000e+02	3.16870239e+09
1.27000000e+02	3.29692940e+09
1.28000000e+02	3.43030070e+09
1.29000000e+02	3.56901929e+09
1.30000000e+02	3.71329594e+09
1.31000000e+02	3.86334942e+09
1.32000000e+02	4.01940683e+09
1.33000000e+02	4.18170386e+09
1.34000000e+02	4.35048512e+09
1.35000000e+02	4.52600445e+09
1.36000000e+02	4.70852522e+09
1.37000000e+02	4.89832069e+09
1.38000000e+02	5.09567432e+09
1.39000000e+02	5.30088014e+09
1.40000000e+02	5.51424313e+09
1.41000000e+02	5.73607953e+09
1.42000000e+02	5.96671728e+09
1.43000000e+02	6.20649640e+09
1.44000000e+02	6.45576936e+09
1.45000000e+02	6.71490153e+09
1.46000000e+02	6.98427158e+09
1.47000000e+02	7.26427191e+09
1.48000000e+02	7.55530914e+09
1.49000000e+02	7.85780449e+09
1.50000000e+02	8.17219432e+09
1.51000000e+02	8.49893057e+09
1.52000000e+02	8.83848126e+09
1.53000000e+02	9.19133097e+09
1.54000000e+02	9.55798139e+09
1.55000000e+02	9.93895182e+09
1.56000000e+02	1.03347797e+10
1.57000000e+02	1.07460212e+10
1.58000000e+02	1.11732517e+10
1.59000000e+02	1.16170664e+10
1.60000000e+02	1.20780809e+10
1.61000000e+02	1.25569318e+10
1.62000000e+02	1.30542773e+10
1.63000000e+02	1.35707979e+10
1.64000000e+02	1.41071967e+10
1.65000000e+02	1.46642003e+10
1.66000000e+02	1.52425596e+10
1.67000000e+02	1.58430501e+10
1.68000000e+02	1.64664726e+10
1.69000000e+02	1.71136542e+10
1.70000000e+02	1.77854485e+10
1.71000000e+02	1.84827368e+10
1.72000000e+02	1.92064284e+10
1.73000000e+02	1.99574613e+10
1.74000000e+02	2.07368031e+10
1.75000000e+02	2.15454518e+10
1.76000000e+02	2.23844361e+10
1.77000000e+02	2.32548165e+10
1.78000000e+02	2.41576858e+10
1.79000000e+02	2.50941701e+10
1.80000000e+02	2.60654289e+10
1.81000000e+02	2.70726568e+10
1.82000000e+02	2.81170831e+10
1.83000000e+02	2.91999736e+10
1.84000000e+02	3.03226303e+10
1.85000000e+02	3.14863931e+10
1.86000000e+02	3.26926395e+10
1.87000000e+02	3.39427863e+10
1.88000000e+02	3.52382893e+10
1.89000000e+02	3.65806449e+10
1.90000000e+02	3.79713901e+10
1.91000000e+02	3.94121033e+10
1.92000000e+02	4.09044052e+10
1.93000000e+02	4.24499591e+10
1.94000000e+02	4.40504717e+10
1.95000000e+02	4.57076936e+10
1.96000000e+02	4.74234197e+10
1.97000000e+02	4.91994900e+10
1.98000000e+02	5.10377901e+10
1.99000000e+02	5.29402513e+10
2.00000000e+02	5.49088516e+10
2.01000000e+02	5.69456155e+10
2.02000000e+02	5.90526149e+10
2.03000000e+02	6.12319692e+10
2.04000000e+02	6.34858456e+10
2.05000000e+02	6.58164592e+10
2.06000000e+02	6.82260738e+10
2.07000000e+02	7.07170013e+10
2.08000000e+02	7.32916023e+10
2.09000000e+02	7.59522861e+10
2.10000000e+02	7.87015107e+10
2.11000000e+02	8.15417825e+10
2.12000000e+02	8.44756568e+10
2.13000000e+02	8.75057369e+10
2.14000000e+02	9.06346746e+10
2.15000000e+02	9.38651693e+10
2.16000000e+02	9.71999682e+10
2.17000000e+02	1.00641865e+11
2.18000000e+02	1.04193702e+11
2.19000000e+02	1.07858364e+11
2.20000000e+02	1.11638785e+11
2.21000000e+02	1.15537941e+11
2.22000000e+02	1.19558854e+11
2.23000000e+02	1.23704587e+11
2.24000000e+02	1.27978247e+11
2.25000000e+02	1.32382982e+11
2.26000000e+02	1.36921978e+11
2.27000000e+02	1.41598462e+11
2.28000000e+02	1.46415697e+11
2.29000000e+02	1.51376983e+11
2.30000000e+02	1.56485655e+11
2.31000000e+02	1.61745079e+11
2.32000000e+02	1.67158656e+11
2.33000000e+02	1.72729813e+11
2.34000000e+02	1.78462007e+11
2.35000000e+02	1.84358720e+11
2.36000000e+02	1.90423459e+11
2.37000000e+02	1.96659752e+11
2.38000000e+02	2.03071146e+11
2.39000000e+02	2.09661206e+11
2.40000000e+02	2.16433513e+11
2.41000000e+02	2.23391658e+11
2.42000000e+02	2.30539243e+11
2.43000000e+02	2.37879878e+11
2.44000000e+02	2.45417176e+11
2.45000000e+02	2.53154753e+11
2.46000000e+02	2.61096221e+11
2.47000000e+02	2.69245192e+11
2.48000000e+02	2.77605266e+11
2.49000000e+02	2.86180035e+11
2.50000000e+02	2.94973077e+11
2.51000000e+02	3.03987951e+11
2.52000000e+02	3.13228198e+11
2.53000000e+02	3.22697334e+11
2.54000000e+02	3.32398846e+11
2.55000000e+02	3.42336191e+11
2.56000000e+02	3.52512792e+11
2.57000000e+02	3.62932033e+11
2.58000000e+02	3.73597255e+11
2.59000000e+02	3.84511754e+11
2.60000000e+02	3.95678775e+11
2.61000000e+02	4.07101511e+11
2.62000000e+02	4.18783097e+11
2.63000000e+02	4.30726605e+11
2.64000000e+02	4.42935043e+11
2.65000000e+02	4.55411350e+11
2.66000000e+02	4.68158390e+11
2.67000000e+02	4.81178951e+11
2.68000000e+02	4.94475739e+11
2.69000000e+02	5.08051375e+11
2.70000000e+02	5.21908391e+11
2.71000000e+02	5.36049225e+11
2.72000000e+02	5.50476219e+11
2.73000000e+02	5.65191613e+11
2.74000000e+02	5.80197542e+11
2.75000000e+02	5.95496032e+11
2.76000000e+02	6.11088999e+11
2.77000000e+02	6.26978240e+11
2.78000000e+02	6.43165432e+11
2.79000000e+02	6.59652130e+11
2.80000000e+02	6.76439762e+11
2.81000000e+02	6.93529623e+11
2.82000000e+02	7.10922876e+11
2.83000000e+02	7.28620547e+11
2.84000000e+02	7.46623520e+11
2.85000000e+02	7.64932535e+11
2.86000000e+02	7.83548188e+11
2.87000000e+02	8.02470921e+11
2.88000000e+02	8.21701028e+11
2.89000000e+02	8.41238645e+11
2.90000000e+02	8.61083750e+11
2.91000000e+02	8.81236162e+11
2.92000000e+02	9.01695536e+11
2.93000000e+02	9.22461364e+11
2.94000000e+02	9.43532970e+11
2.95000000e+02	9.64909507e+11
2.96000000e+02	9.86589961e+11
2.97000000e+02	1.00857314e+12
2.98000000e+02	1.03085769e+12
2.99000000e+02	1.05344207e+12
3.00000000e+02	1.07632456e+12
3.01000000e+02	1.09950327e+12
3.02000000e+02	1.12297614e+12
3.03000000e+02	1.14674091e+12
3.04000000e+02	1.17079515e+12
3.05000000e+02	1.19513626e+12
3.06000000e+02	1.21976145e+12
3.07000000e+02	1.24466773e+12
3.08000000e+02	1.26985198e+12
3.09000000e+02	1.29531084e+12
3.10000000e+02	1.32104082e+12
3.11000000e+02	1.34703821e+12
3.12000000e+02	1.37329916e+12
3.13000000e+02	1.39981961e+12
3.14000000e+02	1.42659534e+12
3.15000000e+02	1.45362195e+12
3.16000000e+02	1.48089487e+12
3.17000000e+02	1.50840934e+12
3.18000000e+02	1.53616046e+12
3.19000000e+02	1.56414313e+12
3.20000000e+02	1.59235211e+12
3.21000000e+02	1.62078196e+12
3.22000000e+02	1.64942711e+12
3.23000000e+02	1.67828182e+12
3.24000000e+02	1.70734018e+12
3.25000000e+02	1.73659613e+12
3.26000000e+02	1.76604347e+12
3.27000000e+02	1.79567584e+12
3.28000000e+02	1.82548673e+12
3.29000000e+02	1.85546949e+12
3.30000000e+02	1.88561732e+12
3.31000000e+02	1.91592331e+12
3.32000000e+02	1.94638039e+12
3.33000000e+02	1.97698137e+12
3.34000000e+02	2.00771893e+12
3.35000000e+02	2.03858563e+12
3.36000000e+02	2.06957392e+12
3.37000000e+02	2.10067611e+12
3.38000000e+02	2.13188443e+12
3.39000000e+02	2.16319098e+12
3.40000000e+02	2.19458777e+12
3.41000000e+02	2.22606671e+12
3.42000000e+02	2.25761961e+12
3.43000000e+02	2.28923818e+12
3.44000000e+02	2.32091408e+12
3.45000000e+02	2.35263885e+12
3.46000000e+02	2.38440399e+12
3.47000000e+02	2.41620088e+12
3.48000000e+02	2.44802088e+12
3.49000000e+02	2.47985526e+12
3.50000000e+02	2.51169524e+12
3.51000000e+02	2.54353199e+12
3.52000000e+02	2.57535661e+12
3.53000000e+02	2.60716019e+12
3.54000000e+02	2.63893374e+12
3.55000000e+02	2.67066826e+12
3.56000000e+02	2.70235472e+12
3.57000000e+02	2.73398406e+12
3.58000000e+02	2.76554718e+12
3.59000000e+02	2.79703498e+12
3.60000000e+02	2.82843835e+12
3.61000000e+02	2.85974817e+12
3.62000000e+02	2.89095530e+12
3.63000000e+02	2.92205061e+12
3.64000000e+02	2.95302500e+12
3.65000000e+02	2.98386933e+12
3.66000000e+02	3.01457451e+12
3.67000000e+02	3.04513146e+12
3.68000000e+02	3.07553111e+12
3.69000000e+02	3.10576443e+12
3.70000000e+02	3.13582241e+12
3.71000000e+02	3.16569608e+12
3.72000000e+02	3.19537651e+12
3.73000000e+02	3.22485480e+12
3.74000000e+02	3.25412211e+12
3.75000000e+02	3.28316962e+12
3.76000000e+02	3.31198860e+12
3.77000000e+02	3.34057035e+12
3.78000000e+02	3.36890623e+12
3.79000000e+02	3.39698768e+12
3.80000000e+02	3.42480618e+12
3.81000000e+02	3.45235329e+12
3.82000000e+02	3.47962064e+12
3.83000000e+02	3.50659992e+12
3.84000000e+02	3.53328292e+12
3.85000000e+02	3.55966148e+12
3.86000000e+02	3.58572754e+12
3.87000000e+02	3.61147310e+12
3.88000000e+02	3.63689026e+12
3.89000000e+02	3.66197120e+12
3.90000000e+02	3.68670816e+12
3.91000000e+02	3.71109351e+12
3.92000000e+02	3.73511967e+12
3.93000000e+02	3.75877916e+12
3.94000000e+02	3.78206459e+12
3.95000000e+02	3.80496865e+12
3.96000000e+02	3.82748412e+12
3.97000000e+02	3.84960387e+12
3.98000000e+02	3.87132084e+12
3.99000000e+02	3.89262808e+12
4.00000000e+02	3.91351870e+12
4.01000000e+02	3.93398590e+12
4.02000000e+02	3.95402296e+12
4.03000000e+02	3.97362324e+12
4.04000000e+02	3.99278017e+12
4.05000000e+02	4.01148726e+12
4.06000000e+02	4.02973808e+12
4.07000000e+02	4.04752627e+12
4.08000000e+02	4.06484553e+12
4.09000000e+02	4.08168963e+12
4.10000000e+02	4.09805238e+12
4.11000000e+02	4.11392766e+12
4.12000000e+02	4.12930938e+12
4.13000000e+02	4.14419150e+12
4.14000000e+02	4.15856802e+12
4.15000000e+02	4.17243297e+12
4.16000000e+02	4.18578042e+12
4.17000000e+02	4.19860445e+12
4.18000000e+02	4.21089915e+12
4.19000000e+02	4.22265867e+12
4.20000000e+02	4.23387711e+12
4.21000000e+02	4.24454862e+12
4.22000000e+02	4.25466734e+12
4.23000000e+02	4.26422739e+12
4.24000000e+02	4.27322290e+12
4.25000000e+02	4.28164799e+12
4.26000000e+02	4.28949674e+12
4.27000000e+02	4.29676326e+12
4.28000000e+02	4.30344159e+12
4.29000000e+02	4.30952577e+12
4.30000000e+02	4.31500981e+12
4.31000000e+02	4.31988770e+12
4.32000000e+02	4.32415341e+12
4.33000000e+02	4.32780085e+12
4.34000000e+02	4.33082395e+12
4.35000000e+02	4.33321658e+12
4.36000000e+02	4.33497259e+12
4.37000000e+02	4.33608583e+12
4.38000000e+02	4.33655013e+12
4.39000000e+02	4.33635929e+12
4.40000000e+02	4.33550712e+12
4.41000000e+02	4.33398742e+12
4.42000000e+02	4.33179402e+12
4.43000000e+02	4.32892073e+12
4.44000000e+02	4.32536141e+12
4.45000000e+02	4.32110995e+12
4.46000000e+02	4.31616028e+12
4.47000000e+02	4.31050640e+12
4.48000000e+02	4.30414236e+12
4.49000000e+02	4.29706230e+12
4.50000000e+02	4.28926049e+12
4.51000000e+02	4.28073126e+12
4.52000000e+02	4.27146910e+12
4.53000000e+02	4.26146866e+12
4.54000000e+02	4.25072473e+12
4.55000000e+02	4.23923228e+12
4.56000000e+02	4.22698652e+12
4.57000000e+02	4.21398285e+12
4.58000000e+02	4.20021692e+12
4.59000000e+02	4.18568465e+12
4.60000000e+02	4.17038226e+12
4.61000000e+02	4.15430626e+12
4.62000000e+02	4.13745351e+12
4.63000000e+02	4.11982122e+12
4.64000000e+02	4.10140699e+12
4.65000000e+02	4.08220882e+12
4.66000000e+02	4.06222515e+12
4.67000000e+02	4.04145487e+12
4.68000000e+02	4.01989737e+12
4.69000000e+02	3.99755254e+12
4.70000000e+02	3.97442081e+12
4.71000000e+02	3.95050317e+12
4.72000000e+02	3.92580121e+12
4.73000000e+02	3.90031714e+12
4.74000000e+02	3.87405379e+12
4.75000000e+02	3.84701469e+12
4.76000000e+02	3.81920403e+12
4.77000000e+02	3.79062675e+12
4.78000000e+02	3.76128851e+12
4.79000000e+02	3.73119574e+12
4.80000000e+02	3.70035564e+12
4.81000000e+02	3.66877625e+12
4.82000000e+02	3.63646639e+12
4.83000000e+02	3.60343571e+12
4.84000000e+02	3.56969474e+12
4.85000000e+02	3.53525484e+12
4.86000000e+02	3.50012821e+12
4.87000000e+02	3.46432794e+12
4.88000000e+02	3.42786795e+12
4.89000000e+02	3.39076302e+12
4.90000000e+02	3.35302874e+12
4.91000000e+02	3.31468156e+12
4.92000000e+02	3.27573868e+12
4.93000000e+02	3.23621809e+12
4.94000000e+02	3.19613851e+12
4.95000000e+02	3.15551935e+12
4.96000000e+02	3.11438068e+12
4.97000000e+02	3.07274318e+12
4.98000000e+02	3.03062807e+12
4.99000000e+02	2.98805709e+12
5.00000000e+02	2.94505241e+12
5.01000000e+02	2.90163658e+12
5.02000000e+02	2.85783247e+12
5.03000000e+02	2.81366321e+12
5.04000000e+02	2.76915213e+12
5.05000000e+02	2.72432268e+12
5.06000000e+02	2.67919839e+12
5.07000000e+02	2.63380280e+12
5.08000000e+02	2.58815942e+12
5.09000000e+02	2.54229168e+12
5.10000000e+02	2.49622286e+12
5.11000000e+02	2.44997610e+12
5.12000000e+02	2.40357434e+12
5.13000000e+02	2.35704031e+12
5.14000000e+02	2.31039651e+12
5.15000000e+02	2.26366521e+12
5.16000000e+02	2.21686845e+12
5.17000000e+02	2.17002803e+12
5.18000000e+02	2.12316558e+12
5.19000000e+02	2.07630253e+12
5.20000000e+02	2.02946017e+12
5.21000000e+02	1.98265968e+12
5.22000000e+02	1.93592219e+12
5.23000000e+02	1.88926880e+12
5.24000000e+02	1.84272066e+12
5.25000000e+02	1.79629901e+12
5.26000000e+02	1.75002525e+12
5.27000000e+02	1.70392097e+12
5.28000000e+02	1.65800806e+12
5.29000000e+02	1.61230869e+12
5.30000000e+02	1.56684545e+12
5.31000000e+02	1.52164132e+12
5.32000000e+02	1.47671975e+12
5.33000000e+02	1.43210473e+12
5.34000000e+02	1.38782074e+12
5.35000000e+02	1.34389282e+12
5.36000000e+02	1.30034659e+12
5.37000000e+02	1.25720821e+12
5.38000000e+02	1.21450440e+12
5.39000000e+02	1.17226238e+12
5.40000000e+02	1.13050987e+12
5.41000000e+02	1.08927501e+12
5.42000000e+02	1.04858628e+12
5.43000000e+02	1.00847246e+12
5.44000000e+02	9.68962472e+11
5.45000000e+02	9.30085323e+11
5.46000000e+02	8.91869945e+11
5.47000000e+02	8.54345066e+11
5.48000000e+02	8.17539055e+11
5.49000000e+02	7.81479756e+11
5.50000000e+02	7.46194319e+11
5.51000000e+02	7.11709015e+11
5.52000000e+02	6.78049051e+11
5.53000000e+02	6.45238379e+11
5.54000000e+02	6.13299502e+11
5.55000000e+02	5.82253288e+11
5.56000000e+02	5.52118782e+11
5.57000000e+02	5.22913032e+11
5.58000000e+02	4.94650917e+11
5.59000000e+02	4.67344999e+11
5.60000000e+02	4.41005382e+11
5.61000000e+02	4.15639596e+11
5.62000000e+02	3.91252501e+11
5.63000000e+02	3.67846215e+11
5.64000000e+02	3.45420063e+11
5.65000000e+02	3.23970563e+11
5.66000000e+02	3.03491428e+11
5.67000000e+02	2.83973604e+11
5.68000000e+02	2.65405335e+11
5.69000000e+02	2.47772248e+11
5.70000000e+02	2.31057477e+11
5.71000000e+02	2.15241796e+11
5.72000000e+02	2.00303788e+11
5.73000000e+02	1.86220022e+11
5.74000000e+02	1.72965254e+11
5.75000000e+02	1.60512636e+11
5.76000000e+02	1.48833937e+11
5.77000000e+02	1.37899772e+11
5.78000000e+02	1.27679831e+11
5.79000000e+02	1.18143107e+11
5.80000000e+02	1.09258122e+11
5.81000000e+02	1.00993145e+11
5.82000000e+02	9.33164010e+10
5.83000000e+02	8.61962691e+10
5.84000000e+02	7.96014634e+10
5.85000000e+02	7.35012013e+10
5.86000000e+02	6.78653547e+10
5.87000000e+02	6.26645830e+10
5.88000000e+02	5.78704486e+10
5.89000000e+02	5.34555142e+10
5.90000000e+02	4.93934229e+10
5.91000000e+02	4.56589611e+10
5.92000000e+02	4.22281045e+10
5.93000000e+02	3.90780494e+10
5.94000000e+02	3.61872297e+10
5.95000000e+02	3.35353207e+10
5.96000000e+02	3.11032321e+10
5.97000000e+02	2.88730896e+10
5.98000000e+02	2.68282089e+10
5.99000000e+02	2.49530612e+10
6.00000000e+02	2.32332336e+10
6.01000000e+02	2.16553833e+10
6.02000000e+02	2.02071903e+10
6.03000000e+02	1.88773040e+10
6.04000000e+02	1.76552913e+10
6.05000000e+02	1.65315817e+10
6.06000000e+02	1.54974133e+10
6.07000000e+02	1.45447787e+10
6.08000000e+02	1.36663726e+10
6.09000000e+02	1.28555403e+10
6.10000000e+02	1.21062279e+10
6.11000000e+02	1.14129354e+10
6.12000000e+02	1.07706713e+10
6.13000000e+02	1.01749100e+10
6.14000000e+02	9.62155178e+09
6.15000000e+02	9.10688528e+09
6.16000000e+02	8.62755251e+09
6.17000000e+02	8.18051641e+09
6.18000000e+02	7.76303095e+09
6.19000000e+02	7.37261347e+09
6.20000000e+02	7.00701944e+09
6.21000000e+02	6.66421920e+09
6.22000000e+02	6.34237692e+09
6.23000000e+02	6.03983130e+09
6.24000000e+02	5.75507817e+09
6.25000000e+02	5.48675462e+09
6.26000000e+02	5.23362476e+09
6.27000000e+02	4.99456678e+09
6.28000000e+02	4.76856138e+09
6.29000000e+02	4.55468126e+09
6.30000000e+02	4.35208178e+09
6.31000000e+02	4.15999256e+09
6.32000000e+02	3.97770988e+09
6.33000000e+02	3.80459001e+09
6.34000000e+02	3.64004312e+09
6.35000000e+02	3.48352793e+09
6.36000000e+02	3.33454693e+09
6.37000000e+02	3.19264205e+09
6.38000000e+02	3.05739087e+09
6.39000000e+02	2.92840323e+09
6.40000000e+02	2.80531821e+09
6.41000000e+02	2.68780141e+09
6.42000000e+02	2.57554256e+09
6.43000000e+02	2.46825337e+09
6.44000000e+02	2.36566560e+09
6.45000000e+02	2.26752933e+09
6.46000000e+02	2.17361138e+09
6.47000000e+02	2.08369393e+09
6.48000000e+02	1.99757323e+09
6.49000000e+02	1.91505839e+09
6.50000000e+02	1.83597038e+09
6.51000000e+02	1.76014098e+09
6.52000000e+02	1.68741189e+09
6.53000000e+02	1.61763393e+09
6.54000000e+02	1.55066626e+09
6.55000000e+02	1.48637565e+09
6.56000000e+02	1.42463589e+09
6.57000000e+02	1.36532715e+09
6.58000000e+02	1.30833552e+09
6.59000000e+02	1.25355246e+09
