# Profil de Te au temps 5.000000000000045e-12 
# simu : /Volumes/MERCURE/JOBS/Zeq1_tanh_50mic_7p5e19_B0_20ps/GNU/Te@y-c.set
# col 0 : abscisse (um)
# col 1 : Te (keV)
5.00000000e-01	9.99999172e-01
1.50000000e+00	9.99999166e-01
2.50000000e+00	9.99999166e-01
3.50000000e+00	9.99999164e-01
4.50000000e+00	9.99999160e-01
5.50000000e+00	9.99999153e-01
6.50000000e+00	9.99999145e-01
7.50000000e+00	9.99999136e-01
8.50000000e+00	9.99999125e-01
9.50000000e+00	9.99999112e-01
1.05000000e+01	9.99999098e-01
1.15000000e+01	9.99999083e-01
1.25000000e+01	9.99999066e-01
1.35000000e+01	9.99999047e-01
1.45000000e+01	9.99999027e-01
1.55000000e+01	9.99999006e-01
1.65000000e+01	9.99998982e-01
1.75000000e+01	9.99998957e-01
1.85000000e+01	9.99998931e-01
1.95000000e+01	9.99998902e-01
2.05000000e+01	9.99998872e-01
2.15000000e+01	9.99998840e-01
2.25000000e+01	9.99998806e-01
2.35000000e+01	9.99998770e-01
2.45000000e+01	9.99998732e-01
2.55000000e+01	9.99998692e-01
2.65000000e+01	9.99998650e-01
2.75000000e+01	9.99998606e-01
2.85000000e+01	9.99998560e-01
2.95000000e+01	9.99998511e-01
3.05000000e+01	9.99998460e-01
3.15000000e+01	9.99998406e-01
3.25000000e+01	9.99998350e-01
3.35000000e+01	9.99998291e-01
3.45000000e+01	9.99998230e-01
3.55000000e+01	9.99998165e-01
3.65000000e+01	9.99998098e-01
3.75000000e+01	9.99998027e-01
3.85000000e+01	9.99997954e-01
3.95000000e+01	9.99997877e-01
4.05000000e+01	9.99997797e-01
4.15000000e+01	9.99997713e-01
4.25000000e+01	9.99997626e-01
4.35000000e+01	9.99997534e-01
4.45000000e+01	9.99997439e-01
4.55000000e+01	9.99997340e-01
4.65000000e+01	9.99997236e-01
4.75000000e+01	9.99997128e-01
4.85000000e+01	9.99997016e-01
4.95000000e+01	9.99996898e-01
5.05000000e+01	9.99996776e-01
5.15000000e+01	9.99996649e-01
5.25000000e+01	9.99996516e-01
5.35000000e+01	9.99996377e-01
5.45000000e+01	9.99996233e-01
5.55000000e+01	9.99996083e-01
5.65000000e+01	9.99995926e-01
5.75000000e+01	9.99995763e-01
5.85000000e+01	9.99995594e-01
5.95000000e+01	9.99995417e-01
6.05000000e+01	9.99995233e-01
6.15000000e+01	9.99995041e-01
6.25000000e+01	9.99994841e-01
6.35000000e+01	9.99994633e-01
6.45000000e+01	9.99994417e-01
6.55000000e+01	9.99994191e-01
6.65000000e+01	9.99993956e-01
6.75000000e+01	9.99993712e-01
6.85000000e+01	9.99993458e-01
6.95000000e+01	9.99993193e-01
7.05000000e+01	9.99992917e-01
7.15000000e+01	9.99992630e-01
7.25000000e+01	9.99992331e-01
7.35000000e+01	9.99992020e-01
7.45000000e+01	9.99991696e-01
7.55000000e+01	9.99991359e-01
7.65000000e+01	9.99991008e-01
7.75000000e+01	9.99990643e-01
7.85000000e+01	9.99990263e-01
7.95000000e+01	9.99989867e-01
8.05000000e+01	9.99989455e-01
8.15000000e+01	9.99989026e-01
8.25000000e+01	9.99988580e-01
8.35000000e+01	9.99988116e-01
8.45000000e+01	9.99987632e-01
8.55000000e+01	9.99987129e-01
8.65000000e+01	9.99986606e-01
8.75000000e+01	9.99986061e-01
8.85000000e+01	9.99985494e-01
8.95000000e+01	9.99984903e-01
9.05000000e+01	9.99984289e-01
9.15000000e+01	9.99983650e-01
9.25000000e+01	9.99982984e-01
9.35000000e+01	9.99982292e-01
9.45000000e+01	9.99981571e-01
9.55000000e+01	9.99980821e-01
9.65000000e+01	9.99980040e-01
9.75000000e+01	9.99979228e-01
9.85000000e+01	9.99978382e-01
9.95000000e+01	9.99977503e-01
1.00500000e+02	9.99976587e-01
1.01500000e+02	9.99975635e-01
1.02500000e+02	9.99974643e-01
1.03500000e+02	9.99973611e-01
1.04500000e+02	9.99972538e-01
1.05500000e+02	9.99971421e-01
1.06500000e+02	9.99970258e-01
1.07500000e+02	9.99969048e-01
1.08500000e+02	9.99967789e-01
1.09500000e+02	9.99966479e-01
1.10500000e+02	9.99965116e-01
1.11500000e+02	9.99963698e-01
1.12500000e+02	9.99962222e-01
1.13500000e+02	9.99960686e-01
1.14500000e+02	9.99959088e-01
1.15500000e+02	9.99957426e-01
1.16500000e+02	9.99955696e-01
1.17500000e+02	9.99953896e-01
1.18500000e+02	9.99952023e-01
1.19500000e+02	9.99950075e-01
1.20500000e+02	9.99948047e-01
1.21500000e+02	9.99945938e-01
1.22500000e+02	9.99943743e-01
1.23500000e+02	9.99941460e-01
1.24500000e+02	9.99939085e-01
1.25500000e+02	9.99936613e-01
1.26500000e+02	9.99934042e-01
1.27500000e+02	9.99931368e-01
1.28500000e+02	9.99928585e-01
1.29500000e+02	9.99925691e-01
1.30500000e+02	9.99922680e-01
1.31500000e+02	9.99919548e-01
1.32500000e+02	9.99916290e-01
1.33500000e+02	9.99912900e-01
1.34500000e+02	9.99909375e-01
1.35500000e+02	9.99905708e-01
1.36500000e+02	9.99901894e-01
1.37500000e+02	9.99897927e-01
1.38500000e+02	9.99893801e-01
1.39500000e+02	9.99889510e-01
1.40500000e+02	9.99885047e-01
1.41500000e+02	9.99880405e-01
1.42500000e+02	9.99875578e-01
1.43500000e+02	9.99870558e-01
1.44500000e+02	9.99865338e-01
1.45500000e+02	9.99859910e-01
1.46500000e+02	9.99854266e-01
1.47500000e+02	9.99848396e-01
1.48500000e+02	9.99842294e-01
1.49500000e+02	9.99835948e-01
1.50500000e+02	9.99829351e-01
1.51500000e+02	9.99822493e-01
1.52500000e+02	9.99815362e-01
1.53500000e+02	9.99807949e-01
1.54500000e+02	9.99800243e-01
1.55500000e+02	9.99792233e-01
1.56500000e+02	9.99783907e-01
1.57500000e+02	9.99775253e-01
1.58500000e+02	9.99766257e-01
1.59500000e+02	9.99756909e-01
1.60500000e+02	9.99747193e-01
1.61500000e+02	9.99737096e-01
1.62500000e+02	9.99726603e-01
1.63500000e+02	9.99715700e-01
1.64500000e+02	9.99704372e-01
1.65500000e+02	9.99692601e-01
1.66500000e+02	9.99680372e-01
1.67500000e+02	9.99667667e-01
1.68500000e+02	9.99654468e-01
1.69500000e+02	9.99640758e-01
1.70500000e+02	9.99626517e-01
1.71500000e+02	9.99611726e-01
1.72500000e+02	9.99596364e-01
1.73500000e+02	9.99580410e-01
1.74500000e+02	9.99563843e-01
1.75500000e+02	9.99546639e-01
1.76500000e+02	9.99528777e-01
1.77500000e+02	9.99510231e-01
1.78500000e+02	9.99490978e-01
1.79500000e+02	9.99470991e-01
1.80500000e+02	9.99450244e-01
1.81500000e+02	9.99428710e-01
1.82500000e+02	9.99406361e-01
1.83500000e+02	9.99383167e-01
1.84500000e+02	9.99359099e-01
1.85500000e+02	9.99334125e-01
1.86500000e+02	9.99308215e-01
1.87500000e+02	9.99281334e-01
1.88500000e+02	9.99253449e-01
1.89500000e+02	9.99224526e-01
1.90500000e+02	9.99194527e-01
1.91500000e+02	9.99163416e-01
1.92500000e+02	9.99131154e-01
1.93500000e+02	9.99097703e-01
1.94500000e+02	9.99063021e-01
1.95500000e+02	9.99027067e-01
1.96500000e+02	9.98989797e-01
1.97500000e+02	9.98951169e-01
1.98500000e+02	9.98911135e-01
1.99500000e+02	9.98869650e-01
2.00500000e+02	9.98826665e-01
2.01500000e+02	9.98782131e-01
2.02500000e+02	9.98735996e-01
2.03500000e+02	9.98688210e-01
2.04500000e+02	9.98638717e-01
2.05500000e+02	9.98587463e-01
2.06500000e+02	9.98534392e-01
2.07500000e+02	9.98479446e-01
2.08500000e+02	9.98422564e-01
2.09500000e+02	9.98363686e-01
2.10500000e+02	9.98302750e-01
2.11500000e+02	9.98239690e-01
2.12500000e+02	9.98174442e-01
2.13500000e+02	9.98106938e-01
2.14500000e+02	9.98037109e-01
2.15500000e+02	9.97964884e-01
2.16500000e+02	9.97890192e-01
2.17500000e+02	9.97812956e-01
2.18500000e+02	9.97733104e-01
2.19500000e+02	9.97650555e-01
2.20500000e+02	9.97565233e-01
2.21500000e+02	9.97477054e-01
2.22500000e+02	9.97385938e-01
2.23500000e+02	9.97291799e-01
2.24500000e+02	9.97194551e-01
2.25500000e+02	9.97094107e-01
2.26500000e+02	9.96990375e-01
2.27500000e+02	9.96883265e-01
2.28500000e+02	9.96772684e-01
2.29500000e+02	9.96658535e-01
2.30500000e+02	9.96540723e-01
2.31500000e+02	9.96419147e-01
2.32500000e+02	9.96293707e-01
2.33500000e+02	9.96164301e-01
2.34500000e+02	9.96030825e-01
2.35500000e+02	9.95893172e-01
2.36500000e+02	9.95751234e-01
2.37500000e+02	9.95604902e-01
2.38500000e+02	9.95454064e-01
2.39500000e+02	9.95298606e-01
2.40500000e+02	9.95138415e-01
2.41500000e+02	9.94973372e-01
2.42500000e+02	9.94803360e-01
2.43500000e+02	9.94628259e-01
2.44500000e+02	9.94447945e-01
2.45500000e+02	9.94262297e-01
2.46500000e+02	9.94071189e-01
2.47500000e+02	9.93874493e-01
2.48500000e+02	9.93672082e-01
2.49500000e+02	9.93463825e-01
2.50500000e+02	9.93249592e-01
2.51500000e+02	9.93029249e-01
2.52500000e+02	9.92802662e-01
2.53500000e+02	9.92569695e-01
2.54500000e+02	9.92330211e-01
2.55500000e+02	9.92084071e-01
2.56500000e+02	9.91831135e-01
2.57500000e+02	9.91571263e-01
2.58500000e+02	9.91304311e-01
2.59500000e+02	9.91030138e-01
2.60500000e+02	9.90748597e-01
2.61500000e+02	9.90459543e-01
2.62500000e+02	9.90162830e-01
2.63500000e+02	9.89858310e-01
2.64500000e+02	9.89545835e-01
2.65500000e+02	9.89225254e-01
2.66500000e+02	9.88896418e-01
2.67500000e+02	9.88559175e-01
2.68500000e+02	9.88213375e-01
2.69500000e+02	9.87858864e-01
2.70500000e+02	9.87495490e-01
2.71500000e+02	9.87123099e-01
2.72500000e+02	9.86741537e-01
2.73500000e+02	9.86350651e-01
2.74500000e+02	9.85950285e-01
2.75500000e+02	9.85540284e-01
2.76500000e+02	9.85120494e-01
2.77500000e+02	9.84690760e-01
2.78500000e+02	9.84250925e-01
2.79500000e+02	9.83800834e-01
2.80500000e+02	9.83340333e-01
2.81500000e+02	9.82869265e-01
2.82500000e+02	9.82387476e-01
2.83500000e+02	9.81894810e-01
2.84500000e+02	9.81391113e-01
2.85500000e+02	9.80876232e-01
2.86500000e+02	9.80350011e-01
2.87500000e+02	9.79812297e-01
2.88500000e+02	9.79262937e-01
2.89500000e+02	9.78701779e-01
2.90500000e+02	9.78128671e-01
2.91500000e+02	9.77543461e-01
2.92500000e+02	9.76946000e-01
2.93500000e+02	9.76336137e-01
2.94500000e+02	9.75713723e-01
2.95500000e+02	9.75078611e-01
2.96500000e+02	9.74430652e-01
2.97500000e+02	9.73769701e-01
2.98500000e+02	9.73095612e-01
2.99500000e+02	9.72408241e-01
3.00500000e+02	9.71707444e-01
3.01500000e+02	9.70993079e-01
3.02500000e+02	9.70265005e-01
3.03500000e+02	9.69523082e-01
3.04500000e+02	9.68767170e-01
3.05500000e+02	9.67997131e-01
3.06500000e+02	9.67212830e-01
3.07500000e+02	9.66414129e-01
3.08500000e+02	9.65600896e-01
3.09500000e+02	9.64772996e-01
3.10500000e+02	9.63930297e-01
3.11500000e+02	9.63072669e-01
3.12500000e+02	9.62199981e-01
3.13500000e+02	9.61312106e-01
3.14500000e+02	9.60408916e-01
3.15500000e+02	9.59490284e-01
3.16500000e+02	9.58556085e-01
3.17500000e+02	9.57606196e-01
3.18500000e+02	9.56640493e-01
3.19500000e+02	9.55658854e-01
3.20500000e+02	9.54661158e-01
3.21500000e+02	9.53647285e-01
3.22500000e+02	9.52617116e-01
3.23500000e+02	9.51570532e-01
3.24500000e+02	9.50507417e-01
3.25500000e+02	9.49427652e-01
3.26500000e+02	9.48331123e-01
3.27500000e+02	9.47217714e-01
3.28500000e+02	9.46087310e-01
3.29500000e+02	9.44939796e-01
3.30500000e+02	9.43775058e-01
3.31500000e+02	9.42592983e-01
3.32500000e+02	9.41393458e-01
3.33500000e+02	9.40176368e-01
3.34500000e+02	9.38941602e-01
3.35500000e+02	9.37689045e-01
3.36500000e+02	9.36418585e-01
3.37500000e+02	9.35130107e-01
3.38500000e+02	9.33823498e-01
3.39500000e+02	9.32498644e-01
3.40500000e+02	9.31155429e-01
3.41500000e+02	9.29793738e-01
3.42500000e+02	9.28413455e-01
3.43500000e+02	9.27014462e-01
3.44500000e+02	9.25596640e-01
3.45500000e+02	9.24159871e-01
3.46500000e+02	9.22704034e-01
3.47500000e+02	9.21229006e-01
3.48500000e+02	9.19734663e-01
3.49500000e+02	9.18220880e-01
3.50500000e+02	9.16687529e-01
3.51500000e+02	9.15134481e-01
3.52500000e+02	9.13561604e-01
3.53500000e+02	9.11968764e-01
3.54500000e+02	9.10355825e-01
3.55500000e+02	9.08722648e-01
3.56500000e+02	9.07069091e-01
3.57500000e+02	9.05395009e-01
3.58500000e+02	9.03700254e-01
3.59500000e+02	9.01984676e-01
3.60500000e+02	9.00248120e-01
3.61500000e+02	8.98490428e-01
3.62500000e+02	8.96711438e-01
3.63500000e+02	8.94910985e-01
3.64500000e+02	8.93088898e-01
3.65500000e+02	8.91245005e-01
3.66500000e+02	8.89379127e-01
3.67500000e+02	8.87491081e-01
3.68500000e+02	8.85580680e-01
3.69500000e+02	8.83647732e-01
3.70500000e+02	8.81692039e-01
3.71500000e+02	8.79713400e-01
3.72500000e+02	8.77711607e-01
3.73500000e+02	8.75686447e-01
3.74500000e+02	8.73637701e-01
3.75500000e+02	8.71565146e-01
3.76500000e+02	8.69468552e-01
3.77500000e+02	8.67347683e-01
3.78500000e+02	8.65202298e-01
3.79500000e+02	8.63032149e-01
3.80500000e+02	8.60836981e-01
3.81500000e+02	8.58616536e-01
3.82500000e+02	8.56370546e-01
3.83500000e+02	8.54098738e-01
3.84500000e+02	8.51800834e-01
3.85500000e+02	8.49476547e-01
3.86500000e+02	8.47125585e-01
3.87500000e+02	8.44747650e-01
3.88500000e+02	8.42342436e-01
3.89500000e+02	8.39909633e-01
3.90500000e+02	8.37448921e-01
3.91500000e+02	8.34959977e-01
3.92500000e+02	8.32442470e-01
3.93500000e+02	8.29896063e-01
3.94500000e+02	8.27320414e-01
3.95500000e+02	8.24715175e-01
3.96500000e+02	8.22079992e-01
3.97500000e+02	8.19414504e-01
3.98500000e+02	8.16718348e-01
3.99500000e+02	8.13991154e-01
4.00500000e+02	8.11232548e-01
4.01500000e+02	8.08442152e-01
4.02500000e+02	8.05619583e-01
4.03500000e+02	8.02764456e-01
4.04500000e+02	7.99876383e-01
4.05500000e+02	7.96954971e-01
4.06500000e+02	7.93999829e-01
4.07500000e+02	7.91010561e-01
4.08500000e+02	7.87986772e-01
4.09500000e+02	7.84928066e-01
4.10500000e+02	7.81834048e-01
4.11500000e+02	7.78704324e-01
4.12500000e+02	7.75538502e-01
4.13500000e+02	7.72336191e-01
4.14500000e+02	7.69097007e-01
4.15500000e+02	7.65820568e-01
4.16500000e+02	7.62506498e-01
4.17500000e+02	7.59154427e-01
4.18500000e+02	7.55763993e-01
4.19500000e+02	7.52334842e-01
4.20500000e+02	7.48866629e-01
4.21500000e+02	7.45359021e-01
4.22500000e+02	7.41811694e-01
4.23500000e+02	7.38224340e-01
4.24500000e+02	7.34596663e-01
4.25500000e+02	7.30928382e-01
4.26500000e+02	7.27219234e-01
4.27500000e+02	7.23468973e-01
4.28500000e+02	7.19677371e-01
4.29500000e+02	7.15844221e-01
4.30500000e+02	7.11969338e-01
4.31500000e+02	7.08052558e-01
4.32500000e+02	7.04093744e-01
4.33500000e+02	7.00092780e-01
4.34500000e+02	6.96049581e-01
4.35500000e+02	6.91964086e-01
4.36500000e+02	6.87836264e-01
4.37500000e+02	6.83666117e-01
4.38500000e+02	6.79453673e-01
4.39500000e+02	6.75198996e-01
4.40500000e+02	6.70902183e-01
4.41500000e+02	6.66563365e-01
4.42500000e+02	6.62182707e-01
4.43500000e+02	6.57760412e-01
4.44500000e+02	6.53296721e-01
4.45500000e+02	6.48791910e-01
4.46500000e+02	6.44246298e-01
4.47500000e+02	6.39660240e-01
4.48500000e+02	6.35034133e-01
4.49500000e+02	6.30368414e-01
4.50500000e+02	6.25663562e-01
4.51500000e+02	6.20920099e-01
4.52500000e+02	6.16138587e-01
4.53500000e+02	6.11319632e-01
4.54500000e+02	6.06463885e-01
4.55500000e+02	6.01572037e-01
4.56500000e+02	5.96644826e-01
4.57500000e+02	5.91683032e-01
4.58500000e+02	5.86687481e-01
4.59500000e+02	5.81659042e-01
4.60500000e+02	5.76598629e-01
4.61500000e+02	5.71507203e-01
4.62500000e+02	5.66385767e-01
4.63500000e+02	5.61235373e-01
4.64500000e+02	5.56057115e-01
4.65500000e+02	5.50852136e-01
4.66500000e+02	5.45621623e-01
4.67500000e+02	5.40366810e-01
4.68500000e+02	5.35088978e-01
4.69500000e+02	5.29789454e-01
4.70500000e+02	5.24469614e-01
4.71500000e+02	5.19130880e-01
4.72500000e+02	5.13774723e-01
4.73500000e+02	5.08402661e-01
4.74500000e+02	5.03016263e-01
4.75500000e+02	4.97617145e-01
4.76500000e+02	4.92206972e-01
4.77500000e+02	4.86787460e-01
4.78500000e+02	4.81360373e-01
4.79500000e+02	4.75927524e-01
4.80500000e+02	4.70490776e-01
4.81500000e+02	4.65052041e-01
4.82500000e+02	4.59613278e-01
4.83500000e+02	4.54176495e-01
4.84500000e+02	4.48743743e-01
4.85500000e+02	4.43317120e-01
4.86500000e+02	4.37898765e-01
4.87500000e+02	4.32490859e-01
4.88500000e+02	4.27095620e-01
4.89500000e+02	4.21715299e-01
4.90500000e+02	4.16352180e-01
4.91500000e+02	4.11008571e-01
4.92500000e+02	4.05686804e-01
4.93500000e+02	4.00389228e-01
4.94500000e+02	3.95118201e-01
4.95500000e+02	3.89876088e-01
4.96500000e+02	3.84665252e-01
4.97500000e+02	3.79488047e-01
4.98500000e+02	3.74346813e-01
4.99500000e+02	3.69243864e-01
5.00500000e+02	3.64181485e-01
5.01500000e+02	3.59161922e-01
5.02500000e+02	3.54187374e-01
5.03500000e+02	3.49259985e-01
5.04500000e+02	3.44381839e-01
5.05500000e+02	3.39554947e-01
5.06500000e+02	3.34781245e-01
5.07500000e+02	3.30062587e-01
5.08500000e+02	3.25400735e-01
5.09500000e+02	3.20797359e-01
5.10500000e+02	3.16254028e-01
5.11500000e+02	3.11772206e-01
5.12500000e+02	3.07353254e-01
5.13500000e+02	3.02998419e-01
5.14500000e+02	2.98708842e-01
5.15500000e+02	2.94485548e-01
5.16500000e+02	2.90329454e-01
5.17500000e+02	2.86241365e-01
5.18500000e+02	2.82221977e-01
5.19500000e+02	2.78271882e-01
5.20500000e+02	2.74391567e-01
5.21500000e+02	2.70581419e-01
5.22500000e+02	2.66841735e-01
5.23500000e+02	2.63172717e-01
5.24500000e+02	2.59574487e-01
5.25500000e+02	2.56047084e-01
5.26500000e+02	2.52590480e-01
5.27500000e+02	2.49204574e-01
5.28500000e+02	2.45889210e-01
5.29500000e+02	2.42644176e-01
5.30500000e+02	2.39469210e-01
5.31500000e+02	2.36364011e-01
5.32500000e+02	2.33328240e-01
5.33500000e+02	2.30361528e-01
5.34500000e+02	2.27463479e-01
5.35500000e+02	2.24633677e-01
5.36500000e+02	2.21871689e-01
5.37500000e+02	2.19177069e-01
5.38500000e+02	2.16549360e-01
5.39500000e+02	2.13988100e-01
5.40500000e+02	2.11492819e-01
5.41500000e+02	2.09063047e-01
5.42500000e+02	2.06698307e-01
5.43500000e+02	2.04398121e-01
5.44500000e+02	2.02162009e-01
5.45500000e+02	1.99989485e-01
5.46500000e+02	1.97880060e-01
5.47500000e+02	1.95833235e-01
5.48500000e+02	1.93848502e-01
5.49500000e+02	1.91925340e-01
5.50500000e+02	1.90063214e-01
5.51500000e+02	1.88261566e-01
5.52500000e+02	1.86519816e-01
5.53500000e+02	1.84837360e-01
5.54500000e+02	1.83213558e-01
5.55500000e+02	1.81647739e-01
5.56500000e+02	1.80139192e-01
5.57500000e+02	1.78687166e-01
5.58500000e+02	1.77290863e-01
5.59500000e+02	1.75949439e-01
5.60500000e+02	1.74662000e-01
5.61500000e+02	1.73427599e-01
5.62500000e+02	1.72245239e-01
5.63500000e+02	1.71113870e-01
5.64500000e+02	1.70032387e-01
5.65500000e+02	1.68999636e-01
5.66500000e+02	1.68014413e-01
5.67500000e+02	1.67075465e-01
5.68500000e+02	1.66181498e-01
5.69500000e+02	1.65331174e-01
5.70500000e+02	1.64523122e-01
5.71500000e+02	1.63755937e-01
5.72500000e+02	1.63028191e-01
5.73500000e+02	1.62338434e-01
5.74500000e+02	1.61685201e-01
5.75500000e+02	1.61067020e-01
5.76500000e+02	1.60482417e-01
5.77500000e+02	1.59929921e-01
5.78500000e+02	1.59408071e-01
5.79500000e+02	1.58915422e-01
5.80500000e+02	1.58450549e-01
5.81500000e+02	1.58012054e-01
5.82500000e+02	1.57598570e-01
5.83500000e+02	1.57208766e-01
5.84500000e+02	1.56841346e-01
5.85500000e+02	1.56495060e-01
5.86500000e+02	1.56168702e-01
5.87500000e+02	1.55861112e-01
5.88500000e+02	1.55571177e-01
5.89500000e+02	1.55297838e-01
5.90500000e+02	1.55040081e-01
5.91500000e+02	1.54796948e-01
5.92500000e+02	1.54567528e-01
5.93500000e+02	1.54350960e-01
5.94500000e+02	1.54146433e-01
5.95500000e+02	1.53953184e-01
5.96500000e+02	1.53770496e-01
5.97500000e+02	1.53597696e-01
5.98500000e+02	1.53434156e-01
5.99500000e+02	1.53279287e-01
6.00500000e+02	1.53132540e-01
6.01500000e+02	1.52993406e-01
6.02500000e+02	1.52861406e-01
6.03500000e+02	1.52736099e-01
6.04500000e+02	1.52617072e-01
6.05500000e+02	1.52503942e-01
6.06500000e+02	1.52396354e-01
6.07500000e+02	1.52293977e-01
6.08500000e+02	1.52196504e-01
6.09500000e+02	1.52103651e-01
6.10500000e+02	1.52015152e-01
6.11500000e+02	1.51930761e-01
6.12500000e+02	1.51850249e-01
6.13500000e+02	1.51773403e-01
6.14500000e+02	1.51700025e-01
6.15500000e+02	1.51629930e-01
6.16500000e+02	1.51562945e-01
6.17500000e+02	1.51498910e-01
6.18500000e+02	1.51437673e-01
6.19500000e+02	1.51379094e-01
6.20500000e+02	1.51323040e-01
6.21500000e+02	1.51269389e-01
6.22500000e+02	1.51218023e-01
6.23500000e+02	1.51168835e-01
6.24500000e+02	1.51121720e-01
6.25500000e+02	1.51076582e-01
6.26500000e+02	1.51033331e-01
6.27500000e+02	1.50991879e-01
6.28500000e+02	1.50952145e-01
6.29500000e+02	1.50914053e-01
6.30500000e+02	1.50877529e-01
6.31500000e+02	1.50842505e-01
6.32500000e+02	1.50808914e-01
6.33500000e+02	1.50776695e-01
6.34500000e+02	1.50745789e-01
6.35500000e+02	1.50716140e-01
6.36500000e+02	1.50687693e-01
6.37500000e+02	1.50660399e-01
6.38500000e+02	1.50634209e-01
6.39500000e+02	1.50609077e-01
6.40500000e+02	1.50584959e-01
6.41500000e+02	1.50561813e-01
6.42500000e+02	1.50539599e-01
6.43500000e+02	1.50518278e-01
6.44500000e+02	1.50497815e-01
6.45500000e+02	1.50478174e-01
6.46500000e+02	1.50459322e-01
6.47500000e+02	1.50441228e-01
6.48500000e+02	1.50423860e-01
6.49500000e+02	1.50407189e-01
6.50500000e+02	1.50391188e-01
6.51500000e+02	1.50375830e-01
6.52500000e+02	1.50361089e-01
6.53500000e+02	1.50346941e-01
6.54500000e+02	1.50333363e-01
6.55500000e+02	1.50320331e-01
6.56500000e+02	1.50307825e-01
6.57500000e+02	1.50295823e-01
6.58500000e+02	1.50284307e-01
6.59500000e+02	1.50273258e-01
6.60500000e+02	1.50262657e-01
