# Profil de Te au temps 1.000000000000012e-11 
# simu : /Volumes/MERCURE/JOBS/Zeq1_tanh_50mic_7p5e19_B0_20ps/GNU/Te@y-c.set
# col 0 : abscisse (um)
# col 1 : Te (keV)
5.00000000e-01	9.99625981e-01
1.50000000e+00	9.99625580e-01
2.50000000e+00	9.99624788e-01
3.50000000e+00	9.99623598e-01
4.50000000e+00	9.99622008e-01
5.50000000e+00	9.99620017e-01
6.50000000e+00	9.99617625e-01
7.50000000e+00	9.99614830e-01
8.50000000e+00	9.99611630e-01
9.50000000e+00	9.99608023e-01
1.05000000e+01	9.99604007e-01
1.15000000e+01	9.99599578e-01
1.25000000e+01	9.99594734e-01
1.35000000e+01	9.99589471e-01
1.45000000e+01	9.99583785e-01
1.55000000e+01	9.99577674e-01
1.65000000e+01	9.99571132e-01
1.75000000e+01	9.99564156e-01
1.85000000e+01	9.99556740e-01
1.95000000e+01	9.99548880e-01
2.05000000e+01	9.99540569e-01
2.15000000e+01	9.99531804e-01
2.25000000e+01	9.99522577e-01
2.35000000e+01	9.99512883e-01
2.45000000e+01	9.99502716e-01
2.55000000e+01	9.99492068e-01
2.65000000e+01	9.99480932e-01
2.75000000e+01	9.99469302e-01
2.85000000e+01	9.99457170e-01
2.95000000e+01	9.99444528e-01
3.05000000e+01	9.99431368e-01
3.15000000e+01	9.99417681e-01
3.25000000e+01	9.99403459e-01
3.35000000e+01	9.99388694e-01
3.45000000e+01	9.99373375e-01
3.55000000e+01	9.99357493e-01
3.65000000e+01	9.99341038e-01
3.75000000e+01	9.99324001e-01
3.85000000e+01	9.99306371e-01
3.95000000e+01	9.99288136e-01
4.05000000e+01	9.99269287e-01
4.15000000e+01	9.99249812e-01
4.25000000e+01	9.99229698e-01
4.35000000e+01	9.99208936e-01
4.45000000e+01	9.99187511e-01
4.55000000e+01	9.99165413e-01
4.65000000e+01	9.99142628e-01
4.75000000e+01	9.99119143e-01
4.85000000e+01	9.99094946e-01
4.95000000e+01	9.99070022e-01
5.05000000e+01	9.99044358e-01
5.15000000e+01	9.99017938e-01
5.25000000e+01	9.98990750e-01
5.35000000e+01	9.98962778e-01
5.45000000e+01	9.98934007e-01
5.55000000e+01	9.98904422e-01
5.65000000e+01	9.98874008e-01
5.75000000e+01	9.98842748e-01
5.85000000e+01	9.98810626e-01
5.95000000e+01	9.98777626e-01
6.05000000e+01	9.98743731e-01
6.15000000e+01	9.98708924e-01
6.25000000e+01	9.98673188e-01
6.35000000e+01	9.98636506e-01
6.45000000e+01	9.98598859e-01
6.55000000e+01	9.98560229e-01
6.65000000e+01	9.98520598e-01
6.75000000e+01	9.98479948e-01
6.85000000e+01	9.98438259e-01
6.95000000e+01	9.98395513e-01
7.05000000e+01	9.98351689e-01
7.15000000e+01	9.98306768e-01
7.25000000e+01	9.98260731e-01
7.35000000e+01	9.98213556e-01
7.45000000e+01	9.98165224e-01
7.55000000e+01	9.98115713e-01
7.65000000e+01	9.98065003e-01
7.75000000e+01	9.98013072e-01
7.85000000e+01	9.97959899e-01
7.95000000e+01	9.97905462e-01
8.05000000e+01	9.97849738e-01
8.15000000e+01	9.97792707e-01
8.25000000e+01	9.97734345e-01
8.35000000e+01	9.97674630e-01
8.45000000e+01	9.97613538e-01
8.55000000e+01	9.97551046e-01
8.65000000e+01	9.97487132e-01
8.75000000e+01	9.97421771e-01
8.85000000e+01	9.97354940e-01
8.95000000e+01	9.97286615e-01
9.05000000e+01	9.97216771e-01
9.15000000e+01	9.97145384e-01
9.25000000e+01	9.97072429e-01
9.35000000e+01	9.96997882e-01
9.45000000e+01	9.96921718e-01
9.55000000e+01	9.96843910e-01
9.65000000e+01	9.96764435e-01
9.75000000e+01	9.96683266e-01
9.85000000e+01	9.96600378e-01
9.95000000e+01	9.96515745e-01
1.00500000e+02	9.96429340e-01
1.01500000e+02	9.96341138e-01
1.02500000e+02	9.96251113e-01
1.03500000e+02	9.96159237e-01
1.04500000e+02	9.96065484e-01
1.05500000e+02	9.95969828e-01
1.06500000e+02	9.95872242e-01
1.07500000e+02	9.95772698e-01
1.08500000e+02	9.95671170e-01
1.09500000e+02	9.95567630e-01
1.10500000e+02	9.95462052e-01
1.11500000e+02	9.95354407e-01
1.12500000e+02	9.95244668e-01
1.13500000e+02	9.95132809e-01
1.14500000e+02	9.95018800e-01
1.15500000e+02	9.94902615e-01
1.16500000e+02	9.94784225e-01
1.17500000e+02	9.94663604e-01
1.18500000e+02	9.94540723e-01
1.19500000e+02	9.94415554e-01
1.20500000e+02	9.94288069e-01
1.21500000e+02	9.94158241e-01
1.22500000e+02	9.94026042e-01
1.23500000e+02	9.93891443e-01
1.24500000e+02	9.93754416e-01
1.25500000e+02	9.93614935e-01
1.26500000e+02	9.93472970e-01
1.27500000e+02	9.93328494e-01
1.28500000e+02	9.93181480e-01
1.29500000e+02	9.93031898e-01
1.30500000e+02	9.92879722e-01
1.31500000e+02	9.92724923e-01
1.32500000e+02	9.92567475e-01
1.33500000e+02	9.92407348e-01
1.34500000e+02	9.92244517e-01
1.35500000e+02	9.92078953e-01
1.36500000e+02	9.91910628e-01
1.37500000e+02	9.91739517e-01
1.38500000e+02	9.91565590e-01
1.39500000e+02	9.91388822e-01
1.40500000e+02	9.91209185e-01
1.41500000e+02	9.91026653e-01
1.42500000e+02	9.90841199e-01
1.43500000e+02	9.90652795e-01
1.44500000e+02	9.90461417e-01
1.45500000e+02	9.90267037e-01
1.46500000e+02	9.90069629e-01
1.47500000e+02	9.89869167e-01
1.48500000e+02	9.89665626e-01
1.49500000e+02	9.89458980e-01
1.50500000e+02	9.89249204e-01
1.51500000e+02	9.89036271e-01
1.52500000e+02	9.88820158e-01
1.53500000e+02	9.88600839e-01
1.54500000e+02	9.88378289e-01
1.55500000e+02	9.88152485e-01
1.56500000e+02	9.87923402e-01
1.57500000e+02	9.87691016e-01
1.58500000e+02	9.87455304e-01
1.59500000e+02	9.87216241e-01
1.60500000e+02	9.86973804e-01
1.61500000e+02	9.86727971e-01
1.62500000e+02	9.86478719e-01
1.63500000e+02	9.86226025e-01
1.64500000e+02	9.85969868e-01
1.65500000e+02	9.85710224e-01
1.66500000e+02	9.85447072e-01
1.67500000e+02	9.85180392e-01
1.68500000e+02	9.84910161e-01
1.69500000e+02	9.84636359e-01
1.70500000e+02	9.84358966e-01
1.71500000e+02	9.84077961e-01
1.72500000e+02	9.83793324e-01
1.73500000e+02	9.83505035e-01
1.74500000e+02	9.83213076e-01
1.75500000e+02	9.82917426e-01
1.76500000e+02	9.82618068e-01
1.77500000e+02	9.82314983e-01
1.78500000e+02	9.82008153e-01
1.79500000e+02	9.81697559e-01
1.80500000e+02	9.81383185e-01
1.81500000e+02	9.81065014e-01
1.82500000e+02	9.80743028e-01
1.83500000e+02	9.80417210e-01
1.84500000e+02	9.80087546e-01
1.85500000e+02	9.79754018e-01
1.86500000e+02	9.79416612e-01
1.87500000e+02	9.79075312e-01
1.88500000e+02	9.78730103e-01
1.89500000e+02	9.78380971e-01
1.90500000e+02	9.78027902e-01
1.91500000e+02	9.77670880e-01
1.92500000e+02	9.77309894e-01
1.93500000e+02	9.76944930e-01
1.94500000e+02	9.76575974e-01
1.95500000e+02	9.76203014e-01
1.96500000e+02	9.75826039e-01
1.97500000e+02	9.75445035e-01
1.98500000e+02	9.75059991e-01
1.99500000e+02	9.74670896e-01
2.00500000e+02	9.74277739e-01
2.01500000e+02	9.73880509e-01
2.02500000e+02	9.73479196e-01
2.03500000e+02	9.73073789e-01
2.04500000e+02	9.72664279e-01
2.05500000e+02	9.72250656e-01
2.06500000e+02	9.71832911e-01
2.07500000e+02	9.71411034e-01
2.08500000e+02	9.70985018e-01
2.09500000e+02	9.70554854e-01
2.10500000e+02	9.70120533e-01
2.11500000e+02	9.69682048e-01
2.12500000e+02	9.69239391e-01
2.13500000e+02	9.68792555e-01
2.14500000e+02	9.68341532e-01
2.15500000e+02	9.67886316e-01
2.16500000e+02	9.67426899e-01
2.17500000e+02	9.66963277e-01
2.18500000e+02	9.66495441e-01
2.19500000e+02	9.66023386e-01
2.20500000e+02	9.65547107e-01
2.21500000e+02	9.65066597e-01
2.22500000e+02	9.64581852e-01
2.23500000e+02	9.64092865e-01
2.24500000e+02	9.63599631e-01
2.25500000e+02	9.63102147e-01
2.26500000e+02	9.62600405e-01
2.27500000e+02	9.62094403e-01
2.28500000e+02	9.61584135e-01
2.29500000e+02	9.61069597e-01
2.30500000e+02	9.60550784e-01
2.31500000e+02	9.60027691e-01
2.32500000e+02	9.59500315e-01
2.33500000e+02	9.58968652e-01
2.34500000e+02	9.58432696e-01
2.35500000e+02	9.57892444e-01
2.36500000e+02	9.57347892e-01
2.37500000e+02	9.56799036e-01
2.38500000e+02	9.56245870e-01
2.39500000e+02	9.55688392e-01
2.40500000e+02	9.55126596e-01
2.41500000e+02	9.54560479e-01
2.42500000e+02	9.53990036e-01
2.43500000e+02	9.53415262e-01
2.44500000e+02	9.52836153e-01
2.45500000e+02	9.52252704e-01
2.46500000e+02	9.51664911e-01
2.47500000e+02	9.51072767e-01
2.48500000e+02	9.50476268e-01
2.49500000e+02	9.49875408e-01
2.50500000e+02	9.49270182e-01
2.51500000e+02	9.48660584e-01
2.52500000e+02	9.48046607e-01
2.53500000e+02	9.47428246e-01
2.54500000e+02	9.46805492e-01
2.55500000e+02	9.46178340e-01
2.56500000e+02	9.45546781e-01
2.57500000e+02	9.44910808e-01
2.58500000e+02	9.44270412e-01
2.59500000e+02	9.43625585e-01
2.60500000e+02	9.42976318e-01
2.61500000e+02	9.42322602e-01
2.62500000e+02	9.41664425e-01
2.63500000e+02	9.41001778e-01
2.64500000e+02	9.40334649e-01
2.65500000e+02	9.39663026e-01
2.66500000e+02	9.38986899e-01
2.67500000e+02	9.38306252e-01
2.68500000e+02	9.37621073e-01
2.69500000e+02	9.36931348e-01
2.70500000e+02	9.36237062e-01
2.71500000e+02	9.35538198e-01
2.72500000e+02	9.34834741e-01
2.73500000e+02	9.34126672e-01
2.74500000e+02	9.33413975e-01
2.75500000e+02	9.32696629e-01
2.76500000e+02	9.31974615e-01
2.77500000e+02	9.31247913e-01
2.78500000e+02	9.30516499e-01
2.79500000e+02	9.29780352e-01
2.80500000e+02	9.29039448e-01
2.81500000e+02	9.28293762e-01
2.82500000e+02	9.27543267e-01
2.83500000e+02	9.26787936e-01
2.84500000e+02	9.26027742e-01
2.85500000e+02	9.25262655e-01
2.86500000e+02	9.24492643e-01
2.87500000e+02	9.23717675e-01
2.88500000e+02	9.22937718e-01
2.89500000e+02	9.22152735e-01
2.90500000e+02	9.21362692e-01
2.91500000e+02	9.20567551e-01
2.92500000e+02	9.19767271e-01
2.93500000e+02	9.18961814e-01
2.94500000e+02	9.18151136e-01
2.95500000e+02	9.17335193e-01
2.96500000e+02	9.16513940e-01
2.97500000e+02	9.15687330e-01
2.98500000e+02	9.14855313e-01
2.99500000e+02	9.14017839e-01
3.00500000e+02	9.13174855e-01
3.01500000e+02	9.12326307e-01
3.02500000e+02	9.11472137e-01
3.03500000e+02	9.10612289e-01
3.04500000e+02	9.09746700e-01
3.05500000e+02	9.08875309e-01
3.06500000e+02	9.07998050e-01
3.07500000e+02	9.07114858e-01
3.08500000e+02	9.06225663e-01
3.09500000e+02	9.05330394e-01
3.10500000e+02	9.04428976e-01
3.11500000e+02	9.03521335e-01
3.12500000e+02	9.02607392e-01
3.13500000e+02	9.01687067e-01
3.14500000e+02	9.00760275e-01
3.15500000e+02	8.99826931e-01
3.16500000e+02	8.98886948e-01
3.17500000e+02	8.97940233e-01
3.18500000e+02	8.96986694e-01
3.19500000e+02	8.96026233e-01
3.20500000e+02	8.95058753e-01
3.21500000e+02	8.94084150e-01
3.22500000e+02	8.93102321e-01
3.23500000e+02	8.92113157e-01
3.24500000e+02	8.91116549e-01
3.25500000e+02	8.90112383e-01
3.26500000e+02	8.89100542e-01
3.27500000e+02	8.88080906e-01
3.28500000e+02	8.87053354e-01
3.29500000e+02	8.86017760e-01
3.30500000e+02	8.84973994e-01
3.31500000e+02	8.83921925e-01
3.32500000e+02	8.82861418e-01
3.33500000e+02	8.81792334e-01
3.34500000e+02	8.80714532e-01
3.35500000e+02	8.79627866e-01
3.36500000e+02	8.78532189e-01
3.37500000e+02	8.77427348e-01
3.38500000e+02	8.76313190e-01
3.39500000e+02	8.75189555e-01
3.40500000e+02	8.74056283e-01
3.41500000e+02	8.72913207e-01
3.42500000e+02	8.71760160e-01
3.43500000e+02	8.70596970e-01
3.44500000e+02	8.69423462e-01
3.45500000e+02	8.68239457e-01
3.46500000e+02	8.67044774e-01
3.47500000e+02	8.65839226e-01
3.48500000e+02	8.64622625e-01
3.49500000e+02	8.63394779e-01
3.50500000e+02	8.62155493e-01
3.51500000e+02	8.60904568e-01
3.52500000e+02	8.59641801e-01
3.53500000e+02	8.58366988e-01
3.54500000e+02	8.57079920e-01
3.55500000e+02	8.55780384e-01
3.56500000e+02	8.54468167e-01
3.57500000e+02	8.53143049e-01
3.58500000e+02	8.51804810e-01
3.59500000e+02	8.50453226e-01
3.60500000e+02	8.49088069e-01
3.61500000e+02	8.47709109e-01
3.62500000e+02	8.46316113e-01
3.63500000e+02	8.44908846e-01
3.64500000e+02	8.43487070e-01
3.65500000e+02	8.42050542e-01
3.66500000e+02	8.40599020e-01
3.67500000e+02	8.39132258e-01
3.68500000e+02	8.37650007e-01
3.69500000e+02	8.36152017e-01
3.70500000e+02	8.34638034e-01
3.71500000e+02	8.33107805e-01
3.72500000e+02	8.31561071e-01
3.73500000e+02	8.29997576e-01
3.74500000e+02	8.28417058e-01
3.75500000e+02	8.26819256e-01
3.76500000e+02	8.25203906e-01
3.77500000e+02	8.23570744e-01
3.78500000e+02	8.21919504e-01
3.79500000e+02	8.20249919e-01
3.80500000e+02	8.18561722e-01
3.81500000e+02	8.16854645e-01
3.82500000e+02	8.15128418e-01
3.83500000e+02	8.13382773e-01
3.84500000e+02	8.11617441e-01
3.85500000e+02	8.09832151e-01
3.86500000e+02	8.08026635e-01
3.87500000e+02	8.06200624e-01
3.88500000e+02	8.04353849e-01
3.89500000e+02	8.02486043e-01
3.90500000e+02	8.00596939e-01
3.91500000e+02	7.98686273e-01
3.92500000e+02	7.96753779e-01
3.93500000e+02	7.94799195e-01
3.94500000e+02	7.92822260e-01
3.95500000e+02	7.90822716e-01
3.96500000e+02	7.88800306e-01
3.97500000e+02	7.86754776e-01
3.98500000e+02	7.84685875e-01
3.99500000e+02	7.82593355e-01
4.00500000e+02	7.80476970e-01
4.01500000e+02	7.78336478e-01
4.02500000e+02	7.76171642e-01
4.03500000e+02	7.73982228e-01
4.04500000e+02	7.71768006e-01
4.05500000e+02	7.69528750e-01
4.06500000e+02	7.67264240e-01
4.07500000e+02	7.64974260e-01
4.08500000e+02	7.62658600e-01
4.09500000e+02	7.60317056e-01
4.10500000e+02	7.57949427e-01
4.11500000e+02	7.55555523e-01
4.12500000e+02	7.53135156e-01
4.13500000e+02	7.50688146e-01
4.14500000e+02	7.48214321e-01
4.15500000e+02	7.45713515e-01
4.16500000e+02	7.43185570e-01
4.17500000e+02	7.40630337e-01
4.18500000e+02	7.38047671e-01
4.19500000e+02	7.35437441e-01
4.20500000e+02	7.32799519e-01
4.21500000e+02	7.30133791e-01
4.22500000e+02	7.27440149e-01
4.23500000e+02	7.24718494e-01
4.24500000e+02	7.21968740e-01
4.25500000e+02	7.19190806e-01
4.26500000e+02	7.16384626e-01
4.27500000e+02	7.13550142e-01
4.28500000e+02	7.10687306e-01
4.29500000e+02	7.07796083e-01
4.30500000e+02	7.04876447e-01
4.31500000e+02	7.01928384e-01
4.32500000e+02	6.98951893e-01
4.33500000e+02	6.95946982e-01
4.34500000e+02	6.92913673e-01
4.35500000e+02	6.89851999e-01
4.36500000e+02	6.86762006e-01
4.37500000e+02	6.83643751e-01
4.38500000e+02	6.80497305e-01
4.39500000e+02	6.77322752e-01
4.40500000e+02	6.74120186e-01
4.41500000e+02	6.70889716e-01
4.42500000e+02	6.67631465e-01
4.43500000e+02	6.64345565e-01
4.44500000e+02	6.61032166e-01
4.45500000e+02	6.57691427e-01
4.46500000e+02	6.54323523e-01
4.47500000e+02	6.50928642e-01
4.48500000e+02	6.47506982e-01
4.49500000e+02	6.44058759e-01
4.50500000e+02	6.40584199e-01
4.51500000e+02	6.37083542e-01
4.52500000e+02	6.33557042e-01
4.53500000e+02	6.30004966e-01
4.54500000e+02	6.26427594e-01
4.55500000e+02	6.22825220e-01
4.56500000e+02	6.19198151e-01
4.57500000e+02	6.15546705e-01
4.58500000e+02	6.11871218e-01
4.59500000e+02	6.08172034e-01
4.60500000e+02	6.04449515e-01
4.61500000e+02	6.00704034e-01
4.62500000e+02	5.96935978e-01
4.63500000e+02	5.93145746e-01
4.64500000e+02	5.89333752e-01
4.65500000e+02	5.85500425e-01
4.66500000e+02	5.81646205e-01
4.67500000e+02	5.77771548e-01
4.68500000e+02	5.73876923e-01
4.69500000e+02	5.69962814e-01
4.70500000e+02	5.66029719e-01
4.71500000e+02	5.62078153e-01
4.72500000e+02	5.58108642e-01
4.73500000e+02	5.54121733e-01
4.74500000e+02	5.50117985e-01
4.75500000e+02	5.46097975e-01
4.76500000e+02	5.42062296e-01
4.77500000e+02	5.38011559e-01
4.78500000e+02	5.33946395e-01
4.79500000e+02	5.29867449e-01
4.80500000e+02	5.25775390e-01
4.81500000e+02	5.21670904e-01
4.82500000e+02	5.17554699e-01
4.83500000e+02	5.13427502e-01
4.84500000e+02	5.09290064e-01
4.85500000e+02	5.05143159e-01
4.86500000e+02	5.00987584e-01
4.87500000e+02	4.96824158e-01
4.88500000e+02	4.92653729e-01
4.89500000e+02	4.88477167e-01
4.90500000e+02	4.84295371e-01
4.91500000e+02	4.80109266e-01
4.92500000e+02	4.75919803e-01
4.93500000e+02	4.71727965e-01
4.94500000e+02	4.67534759e-01
4.95500000e+02	4.63341225e-01
4.96500000e+02	4.59148431e-01
4.97500000e+02	4.54957473e-01
4.98500000e+02	4.50769478e-01
4.99500000e+02	4.46585602e-01
5.00500000e+02	4.42407030e-01
5.01500000e+02	4.38234977e-01
5.02500000e+02	4.34070684e-01
5.03500000e+02	4.29915420e-01
5.04500000e+02	4.25770481e-01
5.05500000e+02	4.21637186e-01
5.06500000e+02	4.17516881e-01
5.07500000e+02	4.13410930e-01
5.08500000e+02	4.09320719e-01
5.09500000e+02	4.05247649e-01
5.10500000e+02	4.01193140e-01
5.11500000e+02	3.97158621e-01
5.12500000e+02	3.93145531e-01
5.13500000e+02	3.89155318e-01
5.14500000e+02	3.85189428e-01
5.15500000e+02	3.81249310e-01
5.16500000e+02	3.77336407e-01
5.17500000e+02	3.73452154e-01
5.18500000e+02	3.69597973e-01
5.19500000e+02	3.65775268e-01
5.20500000e+02	3.61985423e-01
5.21500000e+02	3.58229797e-01
5.22500000e+02	3.54509718e-01
5.23500000e+02	3.50826479e-01
5.24500000e+02	3.47181337e-01
5.25500000e+02	3.43575503e-01
5.26500000e+02	3.40010143e-01
5.27500000e+02	3.36486372e-01
5.28500000e+02	3.33005250e-01
5.29500000e+02	3.29567778e-01
5.30500000e+02	3.26174899e-01
5.31500000e+02	3.22827488e-01
5.32500000e+02	3.19526357e-01
5.33500000e+02	3.16272245e-01
5.34500000e+02	3.13065823e-01
5.35500000e+02	3.09907690e-01
5.36500000e+02	3.06798370e-01
5.37500000e+02	3.03738315e-01
5.38500000e+02	3.00727899e-01
5.39500000e+02	2.97767426e-01
5.40500000e+02	2.94857123e-01
5.41500000e+02	2.91997146e-01
5.42500000e+02	2.89187577e-01
5.43500000e+02	2.86428431e-01
5.44500000e+02	2.83719650e-01
5.45500000e+02	2.81061112e-01
5.46500000e+02	2.78452631e-01
5.47500000e+02	2.75893960e-01
5.48500000e+02	2.73384789e-01
5.49500000e+02	2.70924757e-01
5.50500000e+02	2.68513448e-01
5.51500000e+02	2.66150395e-01
5.52500000e+02	2.63835085e-01
5.53500000e+02	2.61566964e-01
5.54500000e+02	2.59345434e-01
5.55500000e+02	2.57169864e-01
5.56500000e+02	2.55039587e-01
5.57500000e+02	2.52953907e-01
5.58500000e+02	2.50912101e-01
5.59500000e+02	2.48913420e-01
5.60500000e+02	2.46957098e-01
5.61500000e+02	2.45042348e-01
5.62500000e+02	2.43168367e-01
5.63500000e+02	2.41334343e-01
5.64500000e+02	2.39539451e-01
5.65500000e+02	2.37782859e-01
5.66500000e+02	2.36063730e-01
5.67500000e+02	2.34381223e-01
5.68500000e+02	2.32734498e-01
5.69500000e+02	2.31122714e-01
5.70500000e+02	2.29545031e-01
5.71500000e+02	2.28000615e-01
5.72500000e+02	2.26488637e-01
5.73500000e+02	2.25008275e-01
5.74500000e+02	2.23558715e-01
5.75500000e+02	2.22139150e-01
5.76500000e+02	2.20748787e-01
5.77500000e+02	2.19386842e-01
5.78500000e+02	2.18052541e-01
5.79500000e+02	2.16745126e-01
5.80500000e+02	2.15463851e-01
5.81500000e+02	2.14207984e-01
5.82500000e+02	2.12976806e-01
5.83500000e+02	2.11769614e-01
5.84500000e+02	2.10585722e-01
5.85500000e+02	2.09424455e-01
5.86500000e+02	2.08285159e-01
5.87500000e+02	2.07167191e-01
5.88500000e+02	2.06069930e-01
5.89500000e+02	2.04992766e-01
5.90500000e+02	2.03935108e-01
5.91500000e+02	2.02896384e-01
5.92500000e+02	2.01876034e-01
5.93500000e+02	2.00873519e-01
5.94500000e+02	1.99888314e-01
5.95500000e+02	1.98919914e-01
5.96500000e+02	1.97967829e-01
5.97500000e+02	1.97031585e-01
5.98500000e+02	1.96110728e-01
5.99500000e+02	1.95204819e-01
6.00500000e+02	1.94313436e-01
6.01500000e+02	1.93436174e-01
6.02500000e+02	1.92572645e-01
6.03500000e+02	1.91722478e-01
6.04500000e+02	1.90885318e-01
6.05500000e+02	1.90060827e-01
6.06500000e+02	1.89248684e-01
6.07500000e+02	1.88448582e-01
6.08500000e+02	1.87660233e-01
6.09500000e+02	1.86883362e-01
6.10500000e+02	1.86117713e-01
6.11500000e+02	1.85363043e-01
6.12500000e+02	1.84619124e-01
6.13500000e+02	1.83885746e-01
6.14500000e+02	1.83162711e-01
6.15500000e+02	1.82449835e-01
6.16500000e+02	1.81746950e-01
6.17500000e+02	1.81053903e-01
6.18500000e+02	1.80370548e-01
6.19500000e+02	1.79696760e-01
6.20500000e+02	1.79032422e-01
6.21500000e+02	1.78377428e-01
6.22500000e+02	1.77731689e-01
6.23500000e+02	1.77095123e-01
6.24500000e+02	1.76467651e-01
6.25500000e+02	1.75849226e-01
6.26500000e+02	1.75239797e-01
6.27500000e+02	1.74639306e-01
6.28500000e+02	1.74047712e-01
6.29500000e+02	1.73465002e-01
6.30500000e+02	1.72891162e-01
6.31500000e+02	1.72326173e-01
6.32500000e+02	1.71770024e-01
6.33500000e+02	1.71222724e-01
6.34500000e+02	1.70684266e-01
6.35500000e+02	1.70154658e-01
6.36500000e+02	1.69633917e-01
6.37500000e+02	1.69122041e-01
6.38500000e+02	1.68619063e-01
6.39500000e+02	1.68124981e-01
6.40500000e+02	1.67639827e-01
6.41500000e+02	1.67163606e-01
6.42500000e+02	1.66696344e-01
6.43500000e+02	1.66238054e-01
6.44500000e+02	1.65788749e-01
6.45500000e+02	1.65348450e-01
6.46500000e+02	1.64917158e-01
6.47500000e+02	1.64494895e-01
6.48500000e+02	1.64081654e-01
6.49500000e+02	1.63677453e-01
6.50500000e+02	1.63282279e-01
6.51500000e+02	1.62896141e-01
6.52500000e+02	1.62519020e-01
6.53500000e+02	1.62150919e-01
6.54500000e+02	1.61791810e-01
6.55500000e+02	1.61441686e-01
6.56500000e+02	1.61100515e-01
6.57500000e+02	1.60768278e-01
6.58500000e+02	1.60444936e-01
6.59500000e+02	1.60130464e-01
6.60500000e+02	1.59824814e-01
