# Profil de Te au temps 6.000000000000061e-12 
# simu : /Volumes/MERCURE/JOBS/Zeq1_tanh_50mic_7p5e19_B0_20ps/GNU/Te@y-c.set
# col 0 : abscisse (um)
# col 1 : Te (keV)
5.00000000e-01	9.99997375e-01
1.50000000e+00	9.99997367e-01
2.50000000e+00	9.99997361e-01
3.50000000e+00	9.99997351e-01
4.50000000e+00	9.99997335e-01
5.50000000e+00	9.99997314e-01
6.50000000e+00	9.99997289e-01
7.50000000e+00	9.99997259e-01
8.50000000e+00	9.99997225e-01
9.50000000e+00	9.99997186e-01
1.05000000e+01	9.99997142e-01
1.15000000e+01	9.99997094e-01
1.25000000e+01	9.99997041e-01
1.35000000e+01	9.99996984e-01
1.45000000e+01	9.99996922e-01
1.55000000e+01	9.99996854e-01
1.65000000e+01	9.99996782e-01
1.75000000e+01	9.99996704e-01
1.85000000e+01	9.99996621e-01
1.95000000e+01	9.99996533e-01
2.05000000e+01	9.99996439e-01
2.15000000e+01	9.99996339e-01
2.25000000e+01	9.99996234e-01
2.35000000e+01	9.99996123e-01
2.45000000e+01	9.99996005e-01
2.55000000e+01	9.99995881e-01
2.65000000e+01	9.99995750e-01
2.75000000e+01	9.99995612e-01
2.85000000e+01	9.99995468e-01
2.95000000e+01	9.99995316e-01
3.05000000e+01	9.99995157e-01
3.15000000e+01	9.99994990e-01
3.25000000e+01	9.99994815e-01
3.35000000e+01	9.99994631e-01
3.45000000e+01	9.99994440e-01
3.55000000e+01	9.99994239e-01
3.65000000e+01	9.99994029e-01
3.75000000e+01	9.99993809e-01
3.85000000e+01	9.99993580e-01
3.95000000e+01	9.99993340e-01
4.05000000e+01	9.99993090e-01
4.15000000e+01	9.99992829e-01
4.25000000e+01	9.99992556e-01
4.35000000e+01	9.99992271e-01
4.45000000e+01	9.99991975e-01
4.55000000e+01	9.99991665e-01
4.65000000e+01	9.99991342e-01
4.75000000e+01	9.99991005e-01
4.85000000e+01	9.99990654e-01
4.95000000e+01	9.99990288e-01
5.05000000e+01	9.99989907e-01
5.15000000e+01	9.99989509e-01
5.25000000e+01	9.99989095e-01
5.35000000e+01	9.99988664e-01
5.45000000e+01	9.99988214e-01
5.55000000e+01	9.99987746e-01
5.65000000e+01	9.99987258e-01
5.75000000e+01	9.99986751e-01
5.85000000e+01	9.99986222e-01
5.95000000e+01	9.99985671e-01
6.05000000e+01	9.99985098e-01
6.15000000e+01	9.99984500e-01
6.25000000e+01	9.99983879e-01
6.35000000e+01	9.99983232e-01
6.45000000e+01	9.99982558e-01
6.55000000e+01	9.99981857e-01
6.65000000e+01	9.99981126e-01
6.75000000e+01	9.99980367e-01
6.85000000e+01	9.99979576e-01
6.95000000e+01	9.99978753e-01
7.05000000e+01	9.99977896e-01
7.15000000e+01	9.99977004e-01
7.25000000e+01	9.99976076e-01
7.35000000e+01	9.99975111e-01
7.45000000e+01	9.99974106e-01
7.55000000e+01	9.99973061e-01
7.65000000e+01	9.99971973e-01
7.75000000e+01	9.99970841e-01
7.85000000e+01	9.99969663e-01
7.95000000e+01	9.99968438e-01
8.05000000e+01	9.99967163e-01
8.15000000e+01	9.99965836e-01
8.25000000e+01	9.99964456e-01
8.35000000e+01	9.99963021e-01
8.45000000e+01	9.99961527e-01
8.55000000e+01	9.99959974e-01
8.65000000e+01	9.99958358e-01
8.75000000e+01	9.99956677e-01
8.85000000e+01	9.99954928e-01
8.95000000e+01	9.99953110e-01
9.05000000e+01	9.99951218e-01
9.15000000e+01	9.99949251e-01
9.25000000e+01	9.99947205e-01
9.35000000e+01	9.99945077e-01
9.45000000e+01	9.99942864e-01
9.55000000e+01	9.99940562e-01
9.65000000e+01	9.99938169e-01
9.75000000e+01	9.99935680e-01
9.85000000e+01	9.99933092e-01
9.95000000e+01	9.99930402e-01
1.00500000e+02	9.99927604e-01
1.01500000e+02	9.99924695e-01
1.02500000e+02	9.99921671e-01
1.03500000e+02	9.99918527e-01
1.04500000e+02	9.99915258e-01
1.05500000e+02	9.99911860e-01
1.06500000e+02	9.99908328e-01
1.07500000e+02	9.99904656e-01
1.08500000e+02	9.99900839e-01
1.09500000e+02	9.99896873e-01
1.10500000e+02	9.99892750e-01
1.11500000e+02	9.99888465e-01
1.12500000e+02	9.99884012e-01
1.13500000e+02	9.99879385e-01
1.14500000e+02	9.99874576e-01
1.15500000e+02	9.99869580e-01
1.16500000e+02	9.99864388e-01
1.17500000e+02	9.99858994e-01
1.18500000e+02	9.99853390e-01
1.19500000e+02	9.99847568e-01
1.20500000e+02	9.99841521e-01
1.21500000e+02	9.99835238e-01
1.22500000e+02	9.99828713e-01
1.23500000e+02	9.99821936e-01
1.24500000e+02	9.99814897e-01
1.25500000e+02	9.99807587e-01
1.26500000e+02	9.99799996e-01
1.27500000e+02	9.99792113e-01
1.28500000e+02	9.99783929e-01
1.29500000e+02	9.99775431e-01
1.30500000e+02	9.99766609e-01
1.31500000e+02	9.99757451e-01
1.32500000e+02	9.99747944e-01
1.33500000e+02	9.99738076e-01
1.34500000e+02	9.99727835e-01
1.35500000e+02	9.99717206e-01
1.36500000e+02	9.99706175e-01
1.37500000e+02	9.99694730e-01
1.38500000e+02	9.99682853e-01
1.39500000e+02	9.99670532e-01
1.40500000e+02	9.99657749e-01
1.41500000e+02	9.99644489e-01
1.42500000e+02	9.99630734e-01
1.43500000e+02	9.99616468e-01
1.44500000e+02	9.99601673e-01
1.45500000e+02	9.99586331e-01
1.46500000e+02	9.99570422e-01
1.47500000e+02	9.99553927e-01
1.48500000e+02	9.99536826e-01
1.49500000e+02	9.99519098e-01
1.50500000e+02	9.99500723e-01
1.51500000e+02	9.99481678e-01
1.52500000e+02	9.99461940e-01
1.53500000e+02	9.99441487e-01
1.54500000e+02	9.99420294e-01
1.55500000e+02	9.99398337e-01
1.56500000e+02	9.99375590e-01
1.57500000e+02	9.99352028e-01
1.58500000e+02	9.99327624e-01
1.59500000e+02	9.99302350e-01
1.60500000e+02	9.99276179e-01
1.61500000e+02	9.99249080e-01
1.62500000e+02	9.99221024e-01
1.63500000e+02	9.99191981e-01
1.64500000e+02	9.99161919e-01
1.65500000e+02	9.99130805e-01
1.66500000e+02	9.99098607e-01
1.67500000e+02	9.99065291e-01
1.68500000e+02	9.99030822e-01
1.69500000e+02	9.98995163e-01
1.70500000e+02	9.98958279e-01
1.71500000e+02	9.98920132e-01
1.72500000e+02	9.98880683e-01
1.73500000e+02	9.98839892e-01
1.74500000e+02	9.98797720e-01
1.75500000e+02	9.98754124e-01
1.76500000e+02	9.98709064e-01
1.77500000e+02	9.98662494e-01
1.78500000e+02	9.98614371e-01
1.79500000e+02	9.98564650e-01
1.80500000e+02	9.98513283e-01
1.81500000e+02	9.98460225e-01
1.82500000e+02	9.98405425e-01
1.83500000e+02	9.98348835e-01
1.84500000e+02	9.98290404e-01
1.85500000e+02	9.98230080e-01
1.86500000e+02	9.98167811e-01
1.87500000e+02	9.98103542e-01
1.88500000e+02	9.98037219e-01
1.89500000e+02	9.97968786e-01
1.90500000e+02	9.97898186e-01
1.91500000e+02	9.97825360e-01
1.92500000e+02	9.97750249e-01
1.93500000e+02	9.97672792e-01
1.94500000e+02	9.97592929e-01
1.95500000e+02	9.97510595e-01
1.96500000e+02	9.97425729e-01
1.97500000e+02	9.97338263e-01
1.98500000e+02	9.97248133e-01
1.99500000e+02	9.97155271e-01
2.00500000e+02	9.97059609e-01
2.01500000e+02	9.96961078e-01
2.02500000e+02	9.96859606e-01
2.03500000e+02	9.96755123e-01
2.04500000e+02	9.96647555e-01
2.05500000e+02	9.96536829e-01
2.06500000e+02	9.96422870e-01
2.07500000e+02	9.96305602e-01
2.08500000e+02	9.96184947e-01
2.09500000e+02	9.96060828e-01
2.10500000e+02	9.95933166e-01
2.11500000e+02	9.95801880e-01
2.12500000e+02	9.95666888e-01
2.13500000e+02	9.95528110e-01
2.14500000e+02	9.95385461e-01
2.15500000e+02	9.95238858e-01
2.16500000e+02	9.95088215e-01
2.17500000e+02	9.94933446e-01
2.18500000e+02	9.94774464e-01
2.19500000e+02	9.94611182e-01
2.20500000e+02	9.94443510e-01
2.21500000e+02	9.94271359e-01
2.22500000e+02	9.94094638e-01
2.23500000e+02	9.93913257e-01
2.24500000e+02	9.93727122e-01
2.25500000e+02	9.93536142e-01
2.26500000e+02	9.93340222e-01
2.27500000e+02	9.93139268e-01
2.28500000e+02	9.92933186e-01
2.29500000e+02	9.92721880e-01
2.30500000e+02	9.92505254e-01
2.31500000e+02	9.92283210e-01
2.32500000e+02	9.92055651e-01
2.33500000e+02	9.91822481e-01
2.34500000e+02	9.91583599e-01
2.35500000e+02	9.91338908e-01
2.36500000e+02	9.91088307e-01
2.37500000e+02	9.90831698e-01
2.38500000e+02	9.90568981e-01
2.39500000e+02	9.90300054e-01
2.40500000e+02	9.90024818e-01
2.41500000e+02	9.89743171e-01
2.42500000e+02	9.89455013e-01
2.43500000e+02	9.89160242e-01
2.44500000e+02	9.88858756e-01
2.45500000e+02	9.88550455e-01
2.46500000e+02	9.88235236e-01
2.47500000e+02	9.87912998e-01
2.48500000e+02	9.87583640e-01
2.49500000e+02	9.87247059e-01
2.50500000e+02	9.86903154e-01
2.51500000e+02	9.86551825e-01
2.52500000e+02	9.86192969e-01
2.53500000e+02	9.85826485e-01
2.54500000e+02	9.85452274e-01
2.55500000e+02	9.85070234e-01
2.56500000e+02	9.84680265e-01
2.57500000e+02	9.84282267e-01
2.58500000e+02	9.83876141e-01
2.59500000e+02	9.83461787e-01
2.60500000e+02	9.83039107e-01
2.61500000e+02	9.82608003e-01
2.62500000e+02	9.82168377e-01
2.63500000e+02	9.81720132e-01
2.64500000e+02	9.81263171e-01
2.65500000e+02	9.80797398e-01
2.66500000e+02	9.80322718e-01
2.67500000e+02	9.79839036e-01
2.68500000e+02	9.79346258e-01
2.69500000e+02	9.78844291e-01
2.70500000e+02	9.78333042e-01
2.71500000e+02	9.77812420e-01
2.72500000e+02	9.77282332e-01
2.73500000e+02	9.76742690e-01
2.74500000e+02	9.76193403e-01
2.75500000e+02	9.75634383e-01
2.76500000e+02	9.75065542e-01
2.77500000e+02	9.74486793e-01
2.78500000e+02	9.73898051e-01
2.79500000e+02	9.73299229e-01
2.80500000e+02	9.72690244e-01
2.81500000e+02	9.72071013e-01
2.82500000e+02	9.71441452e-01
2.83500000e+02	9.70801481e-01
2.84500000e+02	9.70151019e-01
2.85500000e+02	9.69489987e-01
2.86500000e+02	9.68818304e-01
2.87500000e+02	9.68135895e-01
2.88500000e+02	9.67442681e-01
2.89500000e+02	9.66738587e-01
2.90500000e+02	9.66023538e-01
2.91500000e+02	9.65297459e-01
2.92500000e+02	9.64560277e-01
2.93500000e+02	9.63811920e-01
2.94500000e+02	9.63052315e-01
2.95500000e+02	9.62281393e-01
2.96500000e+02	9.61499083e-01
2.97500000e+02	9.60705316e-01
2.98500000e+02	9.59900023e-01
2.99500000e+02	9.59083136e-01
3.00500000e+02	9.58254589e-01
3.01500000e+02	9.57414314e-01
3.02500000e+02	9.56562247e-01
3.03500000e+02	9.55698322e-01
3.04500000e+02	9.54822473e-01
3.05500000e+02	9.53934638e-01
3.06500000e+02	9.53034751e-01
3.07500000e+02	9.52122750e-01
3.08500000e+02	9.51198571e-01
3.09500000e+02	9.50262152e-01
3.10500000e+02	9.49313431e-01
3.11500000e+02	9.48352344e-01
3.12500000e+02	9.47378830e-01
3.13500000e+02	9.46392827e-01
3.14500000e+02	9.45394273e-01
3.15500000e+02	9.44383104e-01
3.16500000e+02	9.43359260e-01
3.17500000e+02	9.42322676e-01
3.18500000e+02	9.41273292e-01
3.19500000e+02	9.40211042e-01
3.20500000e+02	9.39135864e-01
3.21500000e+02	9.38047694e-01
3.22500000e+02	9.36946466e-01
3.23500000e+02	9.35832116e-01
3.24500000e+02	9.34704576e-01
3.25500000e+02	9.33563780e-01
3.26500000e+02	9.32409660e-01
3.27500000e+02	9.31242146e-01
3.28500000e+02	9.30061169e-01
3.29500000e+02	9.28866656e-01
3.30500000e+02	9.27658535e-01
3.31500000e+02	9.26436731e-01
3.32500000e+02	9.25201169e-01
3.33500000e+02	9.23951770e-01
3.34500000e+02	9.22688455e-01
3.35500000e+02	9.21411143e-01
3.36500000e+02	9.20119751e-01
3.37500000e+02	9.18814193e-01
3.38500000e+02	9.17494381e-01
3.39500000e+02	9.16160225e-01
3.40500000e+02	9.14811633e-01
3.41500000e+02	9.13448509e-01
3.42500000e+02	9.12070755e-01
3.43500000e+02	9.10678271e-01
3.44500000e+02	9.09270953e-01
3.45500000e+02	9.07848694e-01
3.46500000e+02	9.06411383e-01
3.47500000e+02	9.04958908e-01
3.48500000e+02	9.03491151e-01
3.49500000e+02	9.02007991e-01
3.50500000e+02	9.00509304e-01
3.51500000e+02	8.98994962e-01
3.52500000e+02	8.97464831e-01
3.53500000e+02	8.95918777e-01
3.54500000e+02	8.94356657e-01
3.55500000e+02	8.92778326e-01
3.56500000e+02	8.91183634e-01
3.57500000e+02	8.89572427e-01
3.58500000e+02	8.87944545e-01
3.59500000e+02	8.86299824e-01
3.60500000e+02	8.84638094e-01
3.61500000e+02	8.82959180e-01
3.62500000e+02	8.81262902e-01
3.63500000e+02	8.79549075e-01
3.64500000e+02	8.77817508e-01
3.65500000e+02	8.76068002e-01
3.66500000e+02	8.74300357e-01
3.67500000e+02	8.72514362e-01
3.68500000e+02	8.70709804e-01
3.69500000e+02	8.68886462e-01
3.70500000e+02	8.67044108e-01
3.71500000e+02	8.65182509e-01
3.72500000e+02	8.63301426e-01
3.73500000e+02	8.61400612e-01
3.74500000e+02	8.59479814e-01
3.75500000e+02	8.57538774e-01
3.76500000e+02	8.55577225e-01
3.77500000e+02	8.53594896e-01
3.78500000e+02	8.51591506e-01
3.79500000e+02	8.49566769e-01
3.80500000e+02	8.47520394e-01
3.81500000e+02	8.45452081e-01
3.82500000e+02	8.43361523e-01
3.83500000e+02	8.41248409e-01
3.84500000e+02	8.39112420e-01
3.85500000e+02	8.36953229e-01
3.86500000e+02	8.34770505e-01
3.87500000e+02	8.32563910e-01
3.88500000e+02	8.30333099e-01
3.89500000e+02	8.28077723e-01
3.90500000e+02	8.25797424e-01
3.91500000e+02	8.23491842e-01
3.92500000e+02	8.21160608e-01
3.93500000e+02	8.18803351e-01
3.94500000e+02	8.16419694e-01
3.95500000e+02	8.14009254e-01
3.96500000e+02	8.11571645e-01
3.97500000e+02	8.09106478e-01
3.98500000e+02	8.06613359e-01
3.99500000e+02	8.04091891e-01
4.00500000e+02	8.01541674e-01
4.01500000e+02	7.98962306e-01
4.02500000e+02	7.96353384e-01
4.03500000e+02	7.93714503e-01
4.04500000e+02	7.91045257e-01
4.05500000e+02	7.88345241e-01
4.06500000e+02	7.85614047e-01
4.07500000e+02	7.82851274e-01
4.08500000e+02	7.80056516e-01
4.09500000e+02	7.77229375e-01
4.10500000e+02	7.74369453e-01
4.11500000e+02	7.71476357e-01
4.12500000e+02	7.68549699e-01
4.13500000e+02	7.65589094e-01
4.14500000e+02	7.62594167e-01
4.15500000e+02	7.59564548e-01
4.16500000e+02	7.56499874e-01
4.17500000e+02	7.53399794e-01
4.18500000e+02	7.50263964e-01
4.19500000e+02	7.47092051e-01
4.20500000e+02	7.43883735e-01
4.21500000e+02	7.40638709e-01
4.22500000e+02	7.37356676e-01
4.23500000e+02	7.34037358e-01
4.24500000e+02	7.30680490e-01
4.25500000e+02	7.27285823e-01
4.26500000e+02	7.23853127e-01
4.27500000e+02	7.20382189e-01
4.28500000e+02	7.16872817e-01
4.29500000e+02	7.13324838e-01
4.30500000e+02	7.09738099e-01
4.31500000e+02	7.06112473e-01
4.32500000e+02	7.02447851e-01
4.33500000e+02	6.98744153e-01
4.34500000e+02	6.95001319e-01
4.35500000e+02	6.91219317e-01
4.36500000e+02	6.87398142e-01
4.37500000e+02	6.83537815e-01
4.38500000e+02	6.79638385e-01
4.39500000e+02	6.75699929e-01
4.40500000e+02	6.71722554e-01
4.41500000e+02	6.67706396e-01
4.42500000e+02	6.63651622e-01
4.43500000e+02	6.59558431e-01
4.44500000e+02	6.55427049e-01
4.45500000e+02	6.51257739e-01
4.46500000e+02	6.47050793e-01
4.47500000e+02	6.42806537e-01
4.48500000e+02	6.38525328e-01
4.49500000e+02	6.34207558e-01
4.50500000e+02	6.29853652e-01
4.51500000e+02	6.25464067e-01
4.52500000e+02	6.21039294e-01
4.53500000e+02	6.16579860e-01
4.54500000e+02	6.12086324e-01
4.55500000e+02	6.07559278e-01
4.56500000e+02	6.02999350e-01
4.57500000e+02	5.98407201e-01
4.58500000e+02	5.93783525e-01
4.59500000e+02	5.89129053e-01
4.60500000e+02	5.84444547e-01
4.61500000e+02	5.79730804e-01
4.62500000e+02	5.74988657e-01
4.63500000e+02	5.70218971e-01
4.64500000e+02	5.65422645e-01
4.65500000e+02	5.60600615e-01
4.66500000e+02	5.55753849e-01
4.67500000e+02	5.50883351e-01
4.68500000e+02	5.45990160e-01
4.69500000e+02	5.41075349e-01
4.70500000e+02	5.36140029e-01
4.71500000e+02	5.31185344e-01
4.72500000e+02	5.26212476e-01
4.73500000e+02	5.21222644e-01
4.74500000e+02	5.16217103e-01
4.75500000e+02	5.11197146e-01
4.76500000e+02	5.06164106e-01
4.77500000e+02	5.01119352e-01
4.78500000e+02	4.96064294e-01
4.79500000e+02	4.91000382e-01
4.80500000e+02	4.85929104e-01
4.81500000e+02	4.80851991e-01
4.82500000e+02	4.75770614e-01
4.83500000e+02	4.70686585e-01
4.84500000e+02	4.65601557e-01
4.85500000e+02	4.60517223e-01
4.86500000e+02	4.55435318e-01
4.87500000e+02	4.50357617e-01
4.88500000e+02	4.45285933e-01
4.89500000e+02	4.40222118e-01
4.90500000e+02	4.35168060e-01
4.91500000e+02	4.30125681e-01
4.92500000e+02	4.25096938e-01
4.93500000e+02	4.20083814e-01
4.94500000e+02	4.15088321e-01
4.95500000e+02	4.10112495e-01
4.96500000e+02	4.05158389e-01
4.97500000e+02	4.00228072e-01
4.98500000e+02	3.95323623e-01
4.99500000e+02	3.90447124e-01
5.00500000e+02	3.85600659e-01
5.01500000e+02	3.80786300e-01
5.02500000e+02	3.76006110e-01
5.03500000e+02	3.71262128e-01
5.04500000e+02	3.66556367e-01
5.05500000e+02	3.61890805e-01
5.06500000e+02	3.57267377e-01
5.07500000e+02	3.52687972e-01
5.08500000e+02	3.48154418e-01
5.09500000e+02	3.43668482e-01
5.10500000e+02	3.39231861e-01
5.11500000e+02	3.34846174e-01
5.12500000e+02	3.30512957e-01
5.13500000e+02	3.26233658e-01
5.14500000e+02	3.22009630e-01
5.15500000e+02	3.17842128e-01
5.16500000e+02	3.13732307e-01
5.17500000e+02	3.09681213e-01
5.18500000e+02	3.05689786e-01
5.19500000e+02	3.01758858e-01
5.20500000e+02	2.97889148e-01
5.21500000e+02	2.94081266e-01
5.22500000e+02	2.90335712e-01
5.23500000e+02	2.86652878e-01
5.24500000e+02	2.83033049e-01
5.25500000e+02	2.79476406e-01
5.26500000e+02	2.75983031e-01
5.27500000e+02	2.72552908e-01
5.28500000e+02	2.69185932e-01
5.29500000e+02	2.65881906e-01
5.30500000e+02	2.62640556e-01
5.31500000e+02	2.59461529e-01
5.32500000e+02	2.56344402e-01
5.33500000e+02	2.53288689e-01
5.34500000e+02	2.50293843e-01
5.35500000e+02	2.47359267e-01
5.36500000e+02	2.44484317e-01
5.37500000e+02	2.41668311e-01
5.38500000e+02	2.38910533e-01
5.39500000e+02	2.36210238e-01
5.40500000e+02	2.33566660e-01
5.41500000e+02	2.30979020e-01
5.42500000e+02	2.28446524e-01
5.43500000e+02	2.25968375e-01
5.44500000e+02	2.23543775e-01
5.45500000e+02	2.21171932e-01
5.46500000e+02	2.18852057e-01
5.47500000e+02	2.16583380e-01
5.48500000e+02	2.14365140e-01
5.49500000e+02	2.12196598e-01
5.50500000e+02	2.10077037e-01
5.51500000e+02	2.08005761e-01
5.52500000e+02	2.05982101e-01
5.53500000e+02	2.04005413e-01
5.54500000e+02	2.02075085e-01
5.55500000e+02	2.00190528e-01
5.56500000e+02	1.98351187e-01
5.57500000e+02	1.96556531e-01
5.58500000e+02	1.94806060e-01
5.59500000e+02	1.93099299e-01
5.60500000e+02	1.91435801e-01
5.61500000e+02	1.89815140e-01
5.62500000e+02	1.88236912e-01
5.63500000e+02	1.86700736e-01
5.64500000e+02	1.85206243e-01
5.65500000e+02	1.83753081e-01
5.66500000e+02	1.82340907e-01
5.67500000e+02	1.80969386e-01
5.68500000e+02	1.79638188e-01
5.69500000e+02	1.78346982e-01
5.70500000e+02	1.77095434e-01
5.71500000e+02	1.75883204e-01
5.72500000e+02	1.74709940e-01
5.73500000e+02	1.73575279e-01
5.74500000e+02	1.72478839e-01
5.75500000e+02	1.71420218e-01
5.76500000e+02	1.70398992e-01
5.77500000e+02	1.69414709e-01
5.78500000e+02	1.68466891e-01
5.79500000e+02	1.67555031e-01
5.80500000e+02	1.66678589e-01
5.81500000e+02	1.65836993e-01
5.82500000e+02	1.65029637e-01
5.83500000e+02	1.64255885e-01
5.84500000e+02	1.63515064e-01
5.85500000e+02	1.62806470e-01
5.86500000e+02	1.62129369e-01
5.87500000e+02	1.61482995e-01
5.88500000e+02	1.60866555e-01
5.89500000e+02	1.60279230e-01
5.90500000e+02	1.59720178e-01
5.91500000e+02	1.59188537e-01
5.92500000e+02	1.58683427e-01
5.93500000e+02	1.58203953e-01
5.94500000e+02	1.57749210e-01
5.95500000e+02	1.57318287e-01
5.96500000e+02	1.56910265e-01
5.97500000e+02	1.56524229e-01
5.98500000e+02	1.56159264e-01
5.99500000e+02	1.55814462e-01
6.00500000e+02	1.55488923e-01
6.01500000e+02	1.55181761e-01
6.02500000e+02	1.54892103e-01
6.03500000e+02	1.54619095e-01
6.04500000e+02	1.54361901e-01
6.05500000e+02	1.54119708e-01
6.06500000e+02	1.53891726e-01
6.07500000e+02	1.53677189e-01
6.08500000e+02	1.53475359e-01
6.09500000e+02	1.53285524e-01
6.10500000e+02	1.53107000e-01
6.11500000e+02	1.52939131e-01
6.12500000e+02	1.52781291e-01
6.13500000e+02	1.52632883e-01
6.14500000e+02	1.52493336e-01
6.15500000e+02	1.52362110e-01
6.16500000e+02	1.52238693e-01
6.17500000e+02	1.52122598e-01
6.18500000e+02	1.52013367e-01
6.19500000e+02	1.51910567e-01
6.20500000e+02	1.51813792e-01
6.21500000e+02	1.51722657e-01
6.22500000e+02	1.51636804e-01
6.23500000e+02	1.51555893e-01
6.24500000e+02	1.51479608e-01
6.25500000e+02	1.51407654e-01
6.26500000e+02	1.51339753e-01
6.27500000e+02	1.51275646e-01
6.28500000e+02	1.51215091e-01
6.29500000e+02	1.51157863e-01
6.30500000e+02	1.51103751e-01
6.31500000e+02	1.51052559e-01
6.32500000e+02	1.51004105e-01
6.33500000e+02	1.50958217e-01
6.34500000e+02	1.50914738e-01
6.35500000e+02	1.50873520e-01
6.36500000e+02	1.50834424e-01
6.37500000e+02	1.50797324e-01
6.38500000e+02	1.50762099e-01
6.39500000e+02	1.50728639e-01
6.40500000e+02	1.50696840e-01
6.41500000e+02	1.50666606e-01
6.42500000e+02	1.50637846e-01
6.43500000e+02	1.50610478e-01
6.44500000e+02	1.50584422e-01
6.45500000e+02	1.50559606e-01
6.46500000e+02	1.50535961e-01
6.47500000e+02	1.50513425e-01
6.48500000e+02	1.50491938e-01
6.49500000e+02	1.50471444e-01
6.50500000e+02	1.50451890e-01
6.51500000e+02	1.50433230e-01
6.52500000e+02	1.50415416e-01
6.53500000e+02	1.50398406e-01
6.54500000e+02	1.50382160e-01
6.55500000e+02	1.50366642e-01
6.56500000e+02	1.50351814e-01
6.57500000e+02	1.50337644e-01
6.58500000e+02	1.50324102e-01
6.59500000e+02	1.50311158e-01
6.60500000e+02	1.50298784e-01
