# Profil de Te au temps 8.000000000000092e-12 
# simu : /Volumes/MERCURE/JOBS/Zeq1_tanh_50mic_7p5e19_B0_20ps/GNU/Te@y-c.set
# col 0 : abscisse (um)
# col 1 : Te (keV)
5.00000000e-01	9.99967914e-01
1.50000000e+00	9.99967861e-01
2.50000000e+00	9.99967765e-01
3.50000000e+00	9.99967620e-01
4.50000000e+00	9.99967424e-01
5.50000000e+00	9.99967177e-01
6.50000000e+00	9.99966881e-01
7.50000000e+00	9.99966533e-01
8.50000000e+00	9.99966135e-01
9.50000000e+00	9.99965684e-01
1.05000000e+01	9.99965182e-01
1.15000000e+01	9.99964626e-01
1.25000000e+01	9.99964017e-01
1.35000000e+01	9.99963354e-01
1.45000000e+01	9.99962634e-01
1.55000000e+01	9.99961859e-01
1.65000000e+01	9.99961026e-01
1.75000000e+01	9.99960135e-01
1.85000000e+01	9.99959184e-01
1.95000000e+01	9.99958172e-01
2.05000000e+01	9.99957097e-01
2.15000000e+01	9.99955959e-01
2.25000000e+01	9.99954755e-01
2.35000000e+01	9.99953484e-01
2.45000000e+01	9.99952145e-01
2.55000000e+01	9.99950735e-01
2.65000000e+01	9.99949252e-01
2.75000000e+01	9.99947696e-01
2.85000000e+01	9.99946063e-01
2.95000000e+01	9.99944351e-01
3.05000000e+01	9.99942559e-01
3.15000000e+01	9.99940684e-01
3.25000000e+01	9.99938723e-01
3.35000000e+01	9.99936674e-01
3.45000000e+01	9.99934534e-01
3.55000000e+01	9.99932301e-01
3.65000000e+01	9.99929971e-01
3.75000000e+01	9.99927542e-01
3.85000000e+01	9.99925011e-01
3.95000000e+01	9.99922373e-01
4.05000000e+01	9.99919627e-01
4.15000000e+01	9.99916768e-01
4.25000000e+01	9.99913793e-01
4.35000000e+01	9.99910698e-01
4.45000000e+01	9.99907479e-01
4.55000000e+01	9.99904133e-01
4.65000000e+01	9.99900654e-01
4.75000000e+01	9.99897040e-01
4.85000000e+01	9.99893285e-01
4.95000000e+01	9.99889384e-01
5.05000000e+01	9.99885334e-01
5.15000000e+01	9.99881129e-01
5.25000000e+01	9.99876764e-01
5.35000000e+01	9.99872234e-01
5.45000000e+01	9.99867534e-01
5.55000000e+01	9.99862657e-01
5.65000000e+01	9.99857598e-01
5.75000000e+01	9.99852352e-01
5.85000000e+01	9.99846912e-01
5.95000000e+01	9.99841271e-01
6.05000000e+01	9.99835424e-01
6.15000000e+01	9.99829364e-01
6.25000000e+01	9.99823083e-01
6.35000000e+01	9.99816574e-01
6.45000000e+01	9.99809831e-01
6.55000000e+01	9.99802845e-01
6.65000000e+01	9.99795609e-01
6.75000000e+01	9.99788115e-01
6.85000000e+01	9.99780354e-01
6.95000000e+01	9.99772319e-01
7.05000000e+01	9.99763999e-01
7.15000000e+01	9.99755387e-01
7.25000000e+01	9.99746473e-01
7.35000000e+01	9.99737248e-01
7.45000000e+01	9.99727701e-01
7.55000000e+01	9.99717823e-01
7.65000000e+01	9.99707604e-01
7.75000000e+01	9.99697032e-01
7.85000000e+01	9.99686097e-01
7.95000000e+01	9.99674788e-01
8.05000000e+01	9.99663093e-01
8.15000000e+01	9.99651000e-01
8.25000000e+01	9.99638498e-01
8.35000000e+01	9.99625574e-01
8.45000000e+01	9.99612215e-01
8.55000000e+01	9.99598408e-01
8.65000000e+01	9.99584139e-01
8.75000000e+01	9.99569396e-01
8.85000000e+01	9.99554164e-01
8.95000000e+01	9.99538428e-01
9.05000000e+01	9.99522174e-01
9.15000000e+01	9.99505386e-01
9.25000000e+01	9.99488049e-01
9.35000000e+01	9.99470148e-01
9.45000000e+01	9.99451665e-01
9.55000000e+01	9.99432585e-01
9.65000000e+01	9.99412890e-01
9.75000000e+01	9.99392563e-01
9.85000000e+01	9.99371585e-01
9.95000000e+01	9.99349940e-01
1.00500000e+02	9.99327607e-01
1.01500000e+02	9.99304569e-01
1.02500000e+02	9.99280805e-01
1.03500000e+02	9.99256296e-01
1.04500000e+02	9.99231021e-01
1.05500000e+02	9.99204960e-01
1.06500000e+02	9.99178092e-01
1.07500000e+02	9.99150394e-01
1.08500000e+02	9.99121845e-01
1.09500000e+02	9.99092422e-01
1.10500000e+02	9.99062102e-01
1.11500000e+02	9.99030862e-01
1.12500000e+02	9.98998678e-01
1.13500000e+02	9.98965526e-01
1.14500000e+02	9.98931380e-01
1.15500000e+02	9.98896215e-01
1.16500000e+02	9.98860006e-01
1.17500000e+02	9.98822726e-01
1.18500000e+02	9.98784349e-01
1.19500000e+02	9.98744847e-01
1.20500000e+02	9.98704193e-01
1.21500000e+02	9.98662358e-01
1.22500000e+02	9.98619314e-01
1.23500000e+02	9.98575031e-01
1.24500000e+02	9.98529481e-01
1.25500000e+02	9.98482632e-01
1.26500000e+02	9.98434454e-01
1.27500000e+02	9.98384915e-01
1.28500000e+02	9.98333986e-01
1.29500000e+02	9.98281632e-01
1.30500000e+02	9.98227822e-01
1.31500000e+02	9.98172522e-01
1.32500000e+02	9.98115699e-01
1.33500000e+02	9.98057318e-01
1.34500000e+02	9.97997346e-01
1.35500000e+02	9.97935746e-01
1.36500000e+02	9.97872484e-01
1.37500000e+02	9.97807524e-01
1.38500000e+02	9.97740828e-01
1.39500000e+02	9.97672360e-01
1.40500000e+02	9.97602082e-01
1.41500000e+02	9.97529957e-01
1.42500000e+02	9.97455945e-01
1.43500000e+02	9.97380009e-01
1.44500000e+02	9.97302109e-01
1.45500000e+02	9.97222204e-01
1.46500000e+02	9.97140255e-01
1.47500000e+02	9.97056221e-01
1.48500000e+02	9.96970062e-01
1.49500000e+02	9.96881734e-01
1.50500000e+02	9.96791197e-01
1.51500000e+02	9.96698408e-01
1.52500000e+02	9.96603325e-01
1.53500000e+02	9.96505903e-01
1.54500000e+02	9.96406100e-01
1.55500000e+02	9.96303872e-01
1.56500000e+02	9.96199174e-01
1.57500000e+02	9.96091961e-01
1.58500000e+02	9.95982189e-01
1.59500000e+02	9.95869812e-01
1.60500000e+02	9.95754785e-01
1.61500000e+02	9.95637061e-01
1.62500000e+02	9.95516593e-01
1.63500000e+02	9.95393336e-01
1.64500000e+02	9.95267242e-01
1.65500000e+02	9.95138264e-01
1.66500000e+02	9.95006355e-01
1.67500000e+02	9.94871466e-01
1.68500000e+02	9.94733550e-01
1.69500000e+02	9.94592558e-01
1.70500000e+02	9.94448442e-01
1.71500000e+02	9.94301153e-01
1.72500000e+02	9.94150643e-01
1.73500000e+02	9.93996862e-01
1.74500000e+02	9.93839760e-01
1.75500000e+02	9.93679289e-01
1.76500000e+02	9.93515400e-01
1.77500000e+02	9.93348041e-01
1.78500000e+02	9.93177164e-01
1.79500000e+02	9.93002719e-01
1.80500000e+02	9.92824656e-01
1.81500000e+02	9.92642924e-01
1.82500000e+02	9.92457474e-01
1.83500000e+02	9.92268256e-01
1.84500000e+02	9.92075219e-01
1.85500000e+02	9.91878314e-01
1.86500000e+02	9.91677489e-01
1.87500000e+02	9.91472696e-01
1.88500000e+02	9.91263883e-01
1.89500000e+02	9.91051002e-01
1.90500000e+02	9.90834002e-01
1.91500000e+02	9.90612833e-01
1.92500000e+02	9.90387445e-01
1.93500000e+02	9.90157790e-01
1.94500000e+02	9.89923816e-01
1.95500000e+02	9.89685476e-01
1.96500000e+02	9.89442720e-01
1.97500000e+02	9.89195498e-01
1.98500000e+02	9.88943763e-01
1.99500000e+02	9.88687465e-01
2.00500000e+02	9.88426556e-01
2.01500000e+02	9.88160988e-01
2.02500000e+02	9.87890713e-01
2.03500000e+02	9.87615684e-01
2.04500000e+02	9.87335853e-01
2.05500000e+02	9.87051173e-01
2.06500000e+02	9.86761598e-01
2.07500000e+02	9.86467080e-01
2.08500000e+02	9.86167575e-01
2.09500000e+02	9.85863036e-01
2.10500000e+02	9.85553418e-01
2.11500000e+02	9.85238676e-01
2.12500000e+02	9.84918765e-01
2.13500000e+02	9.84593642e-01
2.14500000e+02	9.84263262e-01
2.15500000e+02	9.83927583e-01
2.16500000e+02	9.83586561e-01
2.17500000e+02	9.83240154e-01
2.18500000e+02	9.82888319e-01
2.19500000e+02	9.82531017e-01
2.20500000e+02	9.82168204e-01
2.21500000e+02	9.81799841e-01
2.22500000e+02	9.81425888e-01
2.23500000e+02	9.81046306e-01
2.24500000e+02	9.80661054e-01
2.25500000e+02	9.80270095e-01
2.26500000e+02	9.79873390e-01
2.27500000e+02	9.79470902e-01
2.28500000e+02	9.79062595e-01
2.29500000e+02	9.78648430e-01
2.30500000e+02	9.78228374e-01
2.31500000e+02	9.77802390e-01
2.32500000e+02	9.77370444e-01
2.33500000e+02	9.76932501e-01
2.34500000e+02	9.76488527e-01
2.35500000e+02	9.76038490e-01
2.36500000e+02	9.75582357e-01
2.37500000e+02	9.75120096e-01
2.38500000e+02	9.74651675e-01
2.39500000e+02	9.74177064e-01
2.40500000e+02	9.73696232e-01
2.41500000e+02	9.73209149e-01
2.42500000e+02	9.72715787e-01
2.43500000e+02	9.72216116e-01
2.44500000e+02	9.71710108e-01
2.45500000e+02	9.71197735e-01
2.46500000e+02	9.70678971e-01
2.47500000e+02	9.70153789e-01
2.48500000e+02	9.69622162e-01
2.49500000e+02	9.69084065e-01
2.50500000e+02	9.68539474e-01
2.51500000e+02	9.67988363e-01
2.52500000e+02	9.67430708e-01
2.53500000e+02	9.66866486e-01
2.54500000e+02	9.66295674e-01
2.55500000e+02	9.65718248e-01
2.56500000e+02	9.65134187e-01
2.57500000e+02	9.64543468e-01
2.58500000e+02	9.63946070e-01
2.59500000e+02	9.63341972e-01
2.60500000e+02	9.62731153e-01
2.61500000e+02	9.62113593e-01
2.62500000e+02	9.61489271e-01
2.63500000e+02	9.60858168e-01
2.64500000e+02	9.60220264e-01
2.65500000e+02	9.59575540e-01
2.66500000e+02	9.58923978e-01
2.67500000e+02	9.58265558e-01
2.68500000e+02	9.57600261e-01
2.69500000e+02	9.56928071e-01
2.70500000e+02	9.56248967e-01
2.71500000e+02	9.55562932e-01
2.72500000e+02	9.54869949e-01
2.73500000e+02	9.54169999e-01
2.74500000e+02	9.53463065e-01
2.75500000e+02	9.52749128e-01
2.76500000e+02	9.52028171e-01
2.77500000e+02	9.51300176e-01
2.78500000e+02	9.50565124e-01
2.79500000e+02	9.49822999e-01
2.80500000e+02	9.49073780e-01
2.81500000e+02	9.48317451e-01
2.82500000e+02	9.47553992e-01
2.83500000e+02	9.46783385e-01
2.84500000e+02	9.46005610e-01
2.85500000e+02	9.45220647e-01
2.86500000e+02	9.44428477e-01
2.87500000e+02	9.43629080e-01
2.88500000e+02	9.42822434e-01
2.89500000e+02	9.42008519e-01
2.90500000e+02	9.41187312e-01
2.91500000e+02	9.40358791e-01
2.92500000e+02	9.39522933e-01
2.93500000e+02	9.38679715e-01
2.94500000e+02	9.37829111e-01
2.95500000e+02	9.36971096e-01
2.96500000e+02	9.36105645e-01
2.97500000e+02	9.35232730e-01
2.98500000e+02	9.34352323e-01
2.99500000e+02	9.33464396e-01
3.00500000e+02	9.32568918e-01
3.01500000e+02	9.31665859e-01
3.02500000e+02	9.30755185e-01
3.03500000e+02	9.29836865e-01
3.04500000e+02	9.28910862e-01
3.05500000e+02	9.27977141e-01
3.06500000e+02	9.27035665e-01
3.07500000e+02	9.26086393e-01
3.08500000e+02	9.25129287e-01
3.09500000e+02	9.24164304e-01
3.10500000e+02	9.23191400e-01
3.11500000e+02	9.22210529e-01
3.12500000e+02	9.21221645e-01
3.13500000e+02	9.20224699e-01
3.14500000e+02	9.19219639e-01
3.15500000e+02	9.18206412e-01
3.16500000e+02	9.17184963e-01
3.17500000e+02	9.16155236e-01
3.18500000e+02	9.15117170e-01
3.19500000e+02	9.14070703e-01
3.20500000e+02	9.13015773e-01
3.21500000e+02	9.11952311e-01
3.22500000e+02	9.10880250e-01
3.23500000e+02	9.09799516e-01
3.24500000e+02	9.08710037e-01
3.25500000e+02	9.07611734e-01
3.26500000e+02	9.06504528e-01
3.27500000e+02	9.05388336e-01
3.28500000e+02	9.04263071e-01
3.29500000e+02	9.03128645e-01
3.30500000e+02	9.01984966e-01
3.31500000e+02	9.00831938e-01
3.32500000e+02	8.99669462e-01
3.33500000e+02	8.98497437e-01
3.34500000e+02	8.97315755e-01
3.35500000e+02	8.96124309e-01
3.36500000e+02	8.94922985e-01
3.37500000e+02	8.93711666e-01
3.38500000e+02	8.92490232e-01
3.39500000e+02	8.91258559e-01
3.40500000e+02	8.90016517e-01
3.41500000e+02	8.88763974e-01
3.42500000e+02	8.87500794e-01
3.43500000e+02	8.86226836e-01
3.44500000e+02	8.84941953e-01
3.45500000e+02	8.83645998e-01
3.46500000e+02	8.82338814e-01
3.47500000e+02	8.81020245e-01
3.48500000e+02	8.79690126e-01
3.49500000e+02	8.78348290e-01
3.50500000e+02	8.76994563e-01
3.51500000e+02	8.75628770e-01
3.52500000e+02	8.74250726e-01
3.53500000e+02	8.72860245e-01
3.54500000e+02	8.71457135e-01
3.55500000e+02	8.70041198e-01
3.56500000e+02	8.68612233e-01
3.57500000e+02	8.67170032e-01
3.58500000e+02	8.65714382e-01
3.59500000e+02	8.64245067e-01
3.60500000e+02	8.62761862e-01
3.61500000e+02	8.61264541e-01
3.62500000e+02	8.59752870e-01
3.63500000e+02	8.58226611e-01
3.64500000e+02	8.56685520e-01
3.65500000e+02	8.55129348e-01
3.66500000e+02	8.53557842e-01
3.67500000e+02	8.51970743e-01
3.68500000e+02	8.50367787e-01
3.69500000e+02	8.48748703e-01
3.70500000e+02	8.47113219e-01
3.71500000e+02	8.45461054e-01
3.72500000e+02	8.43791925e-01
3.73500000e+02	8.42105544e-01
3.74500000e+02	8.40401615e-01
3.75500000e+02	8.38679842e-01
3.76500000e+02	8.36939921e-01
3.77500000e+02	8.35181545e-01
3.78500000e+02	8.33404404e-01
3.79500000e+02	8.31608181e-01
3.80500000e+02	8.29792557e-01
3.81500000e+02	8.27957209e-01
3.82500000e+02	8.26101811e-01
3.83500000e+02	8.24226032e-01
3.84500000e+02	8.22329539e-01
3.85500000e+02	8.20411996e-01
3.86500000e+02	8.18473064e-01
3.87500000e+02	8.16512401e-01
3.88500000e+02	8.14529664e-01
3.89500000e+02	8.12524507e-01
3.90500000e+02	8.10496582e-01
3.91500000e+02	8.08445542e-01
3.92500000e+02	8.06371036e-01
3.93500000e+02	8.04272714e-01
3.94500000e+02	8.02150226e-01
3.95500000e+02	8.00003220e-01
3.96500000e+02	7.97831345e-01
3.97500000e+02	7.95634253e-01
3.98500000e+02	7.93411595e-01
3.99500000e+02	7.91163022e-01
4.00500000e+02	7.88888191e-01
4.01500000e+02	7.86586758e-01
4.02500000e+02	7.84258382e-01
4.03500000e+02	7.81902727e-01
4.04500000e+02	7.79519460e-01
4.05500000e+02	7.77108251e-01
4.06500000e+02	7.74668775e-01
4.07500000e+02	7.72200714e-01
4.08500000e+02	7.69703752e-01
4.09500000e+02	7.67177582e-01
4.10500000e+02	7.64621902e-01
4.11500000e+02	7.62036419e-01
4.12500000e+02	7.59420844e-01
4.13500000e+02	7.56774899e-01
4.14500000e+02	7.54098314e-01
4.15500000e+02	7.51390827e-01
4.16500000e+02	7.48652187e-01
4.17500000e+02	7.45882152e-01
4.18500000e+02	7.43080491e-01
4.19500000e+02	7.40246984e-01
4.20500000e+02	7.37381423e-01
4.21500000e+02	7.34483612e-01
4.22500000e+02	7.31553367e-01
4.23500000e+02	7.28590519e-01
4.24500000e+02	7.25594909e-01
4.25500000e+02	7.22566396e-01
4.26500000e+02	7.19504851e-01
4.27500000e+02	7.16410161e-01
4.28500000e+02	7.13282229e-01
4.29500000e+02	7.10120972e-01
4.30500000e+02	7.06926325e-01
4.31500000e+02	7.03698240e-01
4.32500000e+02	7.00436685e-01
4.33500000e+02	6.97141645e-01
4.34500000e+02	6.93813125e-01
4.35500000e+02	6.90451145e-01
4.36500000e+02	6.87055747e-01
4.37500000e+02	6.83626989e-01
4.38500000e+02	6.80164949e-01
4.39500000e+02	6.76669725e-01
4.40500000e+02	6.73141434e-01
4.41500000e+02	6.69580213e-01
4.42500000e+02	6.65986218e-01
4.43500000e+02	6.62359626e-01
4.44500000e+02	6.58700635e-01
4.45500000e+02	6.55009461e-01
4.46500000e+02	6.51286343e-01
4.47500000e+02	6.47531539e-01
4.48500000e+02	6.43745329e-01
4.49500000e+02	6.39928013e-01
4.50500000e+02	6.36079910e-01
4.51500000e+02	6.32201363e-01
4.52500000e+02	6.28292734e-01
4.53500000e+02	6.24354406e-01
4.54500000e+02	6.20386782e-01
4.55500000e+02	6.16390287e-01
4.56500000e+02	6.12365365e-01
4.57500000e+02	6.08312483e-01
4.58500000e+02	6.04232127e-01
4.59500000e+02	6.00124803e-01
4.60500000e+02	5.95991040e-01
4.61500000e+02	5.91831386e-01
4.62500000e+02	5.87646409e-01
4.63500000e+02	5.83436700e-01
4.64500000e+02	5.79202869e-01
4.65500000e+02	5.74945547e-01
4.66500000e+02	5.70665386e-01
4.67500000e+02	5.66363061e-01
4.68500000e+02	5.62039267e-01
4.69500000e+02	5.57694719e-01
4.70500000e+02	5.53330158e-01
4.71500000e+02	5.48946344e-01
4.72500000e+02	5.44544062e-01
4.73500000e+02	5.40124118e-01
4.74500000e+02	5.35687343e-01
4.75500000e+02	5.31234593e-01
4.76500000e+02	5.26766747e-01
4.77500000e+02	5.22284711e-01
4.78500000e+02	5.17789415e-01
4.79500000e+02	5.13281820e-01
4.80500000e+02	5.08762910e-01
4.81500000e+02	5.04233700e-01
4.82500000e+02	4.99695234e-01
4.83500000e+02	4.95148584e-01
4.84500000e+02	4.90594854e-01
4.85500000e+02	4.86035180e-01
4.86500000e+02	4.81470729e-01
4.87500000e+02	4.76902701e-01
4.88500000e+02	4.72332329e-01
4.89500000e+02	4.67760880e-01
4.90500000e+02	4.63189654e-01
4.91500000e+02	4.58619987e-01
4.92500000e+02	4.54053248e-01
4.93500000e+02	4.49490840e-01
4.94500000e+02	4.44934202e-01
4.95500000e+02	4.40384802e-01
4.96500000e+02	4.35844145e-01
4.97500000e+02	4.31313765e-01
4.98500000e+02	4.26795226e-01
4.99500000e+02	4.22290122e-01
5.00500000e+02	4.17800072e-01
5.01500000e+02	4.13326721e-01
5.02500000e+02	4.08871732e-01
5.03500000e+02	4.04436791e-01
5.04500000e+02	4.00023597e-01
5.05500000e+02	3.95633860e-01
5.06500000e+02	3.91269300e-01
5.07500000e+02	3.86931638e-01
5.08500000e+02	3.82622594e-01
5.09500000e+02	3.78343885e-01
5.10500000e+02	3.74097212e-01
5.11500000e+02	3.69884262e-01
5.12500000e+02	3.65706701e-01
5.13500000e+02	3.61566165e-01
5.14500000e+02	3.57464256e-01
5.15500000e+02	3.53402540e-01
5.16500000e+02	3.49382535e-01
5.17500000e+02	3.45405709e-01
5.18500000e+02	3.41473474e-01
5.19500000e+02	3.37587182e-01
5.20500000e+02	3.33748117e-01
5.21500000e+02	3.29957491e-01
5.22500000e+02	3.26216441e-01
5.23500000e+02	3.22526026e-01
5.24500000e+02	3.18887219e-01
5.25500000e+02	3.15300910e-01
5.26500000e+02	3.11767897e-01
5.27500000e+02	3.08288889e-01
5.28500000e+02	3.04864503e-01
5.29500000e+02	3.01495262e-01
5.30500000e+02	2.98181595e-01
5.31500000e+02	2.94923838e-01
5.32500000e+02	2.91722237e-01
5.33500000e+02	2.88576942e-01
5.34500000e+02	2.85488016e-01
5.35500000e+02	2.82455434e-01
5.36500000e+02	2.79479088e-01
5.37500000e+02	2.76558784e-01
5.38500000e+02	2.73694252e-01
5.39500000e+02	2.70885147e-01
5.40500000e+02	2.68131053e-01
5.41500000e+02	2.65431485e-01
5.42500000e+02	2.62785897e-01
5.43500000e+02	2.60193683e-01
5.44500000e+02	2.57654186e-01
5.45500000e+02	2.55166696e-01
5.46500000e+02	2.52730459e-01
5.47500000e+02	2.50344682e-01
5.48500000e+02	2.48008533e-01
5.49500000e+02	2.45721150e-01
5.50500000e+02	2.43481644e-01
5.51500000e+02	2.41289102e-01
5.52500000e+02	2.39142589e-01
5.53500000e+02	2.37041159e-01
5.54500000e+02	2.34983851e-01
5.55500000e+02	2.32969696e-01
5.56500000e+02	2.30997720e-01
5.57500000e+02	2.29066948e-01
5.58500000e+02	2.27176404e-01
5.59500000e+02	2.25325118e-01
5.60500000e+02	2.23512126e-01
5.61500000e+02	2.21736472e-01
5.62500000e+02	2.19997211e-01
5.63500000e+02	2.18293413e-01
5.64500000e+02	2.16624162e-01
5.65500000e+02	2.14988559e-01
5.66500000e+02	2.13385726e-01
5.67500000e+02	2.11814802e-01
5.68500000e+02	2.10274950e-01
5.69500000e+02	2.08765355e-01
5.70500000e+02	2.07285227e-01
5.71500000e+02	2.05833800e-01
5.72500000e+02	2.04410334e-01
5.73500000e+02	2.03014116e-01
5.74500000e+02	2.01644462e-01
5.75500000e+02	2.00300714e-01
5.76500000e+02	1.98982242e-01
5.77500000e+02	1.97688447e-01
5.78500000e+02	1.96418757e-01
5.79500000e+02	1.95172629e-01
5.80500000e+02	1.93949551e-01
5.81500000e+02	1.92749039e-01
5.82500000e+02	1.91570636e-01
5.83500000e+02	1.90413916e-01
5.84500000e+02	1.89278480e-01
5.85500000e+02	1.88163957e-01
5.86500000e+02	1.87070003e-01
5.87500000e+02	1.85996301e-01
5.88500000e+02	1.84942557e-01
5.89500000e+02	1.83908504e-01
5.90500000e+02	1.82893899e-01
5.91500000e+02	1.81898519e-01
5.92500000e+02	1.80922165e-01
5.93500000e+02	1.79964657e-01
5.94500000e+02	1.79025832e-01
5.95500000e+02	1.78105549e-01
5.96500000e+02	1.77203677e-01
5.97500000e+02	1.76320105e-01
5.98500000e+02	1.75454731e-01
5.99500000e+02	1.74607466e-01
6.00500000e+02	1.73778230e-01
6.01500000e+02	1.72966949e-01
6.02500000e+02	1.72173559e-01
6.03500000e+02	1.71397996e-01
6.04500000e+02	1.70640204e-01
6.05500000e+02	1.69900124e-01
6.06500000e+02	1.69177696e-01
6.07500000e+02	1.68472863e-01
6.08500000e+02	1.67785559e-01
6.09500000e+02	1.67115716e-01
6.10500000e+02	1.66463260e-01
6.11500000e+02	1.65828106e-01
6.12500000e+02	1.65210165e-01
6.13500000e+02	1.64609336e-01
6.14500000e+02	1.64025509e-01
6.15500000e+02	1.63458560e-01
6.16500000e+02	1.62908350e-01
6.17500000e+02	1.62374731e-01
6.18500000e+02	1.61857546e-01
6.19500000e+02	1.61356619e-01
6.20500000e+02	1.60871765e-01
6.21500000e+02	1.60402780e-01
6.22500000e+02	1.59949453e-01
6.23500000e+02	1.59511555e-01
6.24500000e+02	1.59088846e-01
6.25500000e+02	1.58681074e-01
6.26500000e+02	1.58287974e-01
6.27500000e+02	1.57909272e-01
6.28500000e+02	1.57544682e-01
6.29500000e+02	1.57193908e-01
6.30500000e+02	1.56856648e-01
6.31500000e+02	1.56532589e-01
6.32500000e+02	1.56221412e-01
6.33500000e+02	1.55922794e-01
6.34500000e+02	1.55636405e-01
6.35500000e+02	1.55361910e-01
6.36500000e+02	1.55098975e-01
6.37500000e+02	1.54847260e-01
6.38500000e+02	1.54606426e-01
6.39500000e+02	1.54376132e-01
6.40500000e+02	1.54156040e-01
6.41500000e+02	1.53945812e-01
6.42500000e+02	1.53745112e-01
6.43500000e+02	1.53553608e-01
6.44500000e+02	1.53370972e-01
6.45500000e+02	1.53196879e-01
6.46500000e+02	1.53031010e-01
6.47500000e+02	1.52873052e-01
6.48500000e+02	1.52722697e-01
6.49500000e+02	1.52579643e-01
6.50500000e+02	1.52443598e-01
6.51500000e+02	1.52314272e-01
6.52500000e+02	1.52191388e-01
6.53500000e+02	1.52074672e-01
6.54500000e+02	1.51963861e-01
6.55500000e+02	1.51858698e-01
6.56500000e+02	1.51758935e-01
6.57500000e+02	1.51664334e-01
6.58500000e+02	1.51574661e-01
6.59500000e+02	1.51489693e-01
6.60500000e+02	1.51409215e-01
