# Profil de Te au temps 1.200000000000016e-11 
# simu : /Volumes/MERCURE/JOBS/Zeq1_tanh_50mic_7p5e19_B0_20ps/GNU/Te@y-c.set
# col 0 : abscisse (um)
# col 1 : Te (keV)
5.00000000e-01	9.97583024e-01
1.50000000e+00	9.97581656e-01
2.50000000e+00	9.97578937e-01
3.50000000e+00	9.97574858e-01
4.50000000e+00	9.97569414e-01
5.50000000e+00	9.97562605e-01
6.50000000e+00	9.97554432e-01
7.50000000e+00	9.97544893e-01
8.50000000e+00	9.97533985e-01
9.50000000e+00	9.97521707e-01
1.05000000e+01	9.97508057e-01
1.15000000e+01	9.97493031e-01
1.25000000e+01	9.97476627e-01
1.35000000e+01	9.97458841e-01
1.45000000e+01	9.97439671e-01
1.55000000e+01	9.97419112e-01
1.65000000e+01	9.97397161e-01
1.75000000e+01	9.97373813e-01
1.85000000e+01	9.97349064e-01
1.95000000e+01	9.97322909e-01
2.05000000e+01	9.97295344e-01
2.15000000e+01	9.97266362e-01
2.25000000e+01	9.97235960e-01
2.35000000e+01	9.97204130e-01
2.45000000e+01	9.97170867e-01
2.55000000e+01	9.97136165e-01
2.65000000e+01	9.97100018e-01
2.75000000e+01	9.97062418e-01
2.85000000e+01	9.97023360e-01
2.95000000e+01	9.96982835e-01
3.05000000e+01	9.96940837e-01
3.15000000e+01	9.96897358e-01
3.25000000e+01	9.96852391e-01
3.35000000e+01	9.96805927e-01
3.45000000e+01	9.96757958e-01
3.55000000e+01	9.96708476e-01
3.65000000e+01	9.96657473e-01
3.75000000e+01	9.96604939e-01
3.85000000e+01	9.96550865e-01
3.95000000e+01	9.96495243e-01
4.05000000e+01	9.96438063e-01
4.15000000e+01	9.96379316e-01
4.25000000e+01	9.96318991e-01
4.35000000e+01	9.96257079e-01
4.45000000e+01	9.96193570e-01
4.55000000e+01	9.96128454e-01
4.65000000e+01	9.96061719e-01
4.75000000e+01	9.95993356e-01
4.85000000e+01	9.95923354e-01
4.95000000e+01	9.95851702e-01
5.05000000e+01	9.95778389e-01
5.15000000e+01	9.95703404e-01
5.25000000e+01	9.95626735e-01
5.35000000e+01	9.95548371e-01
5.45000000e+01	9.95468300e-01
5.55000000e+01	9.95386511e-01
5.65000000e+01	9.95302992e-01
5.75000000e+01	9.95217731e-01
5.85000000e+01	9.95130716e-01
5.95000000e+01	9.95041934e-01
6.05000000e+01	9.94951374e-01
6.15000000e+01	9.94859023e-01
6.25000000e+01	9.94764868e-01
6.35000000e+01	9.94668898e-01
6.45000000e+01	9.94571099e-01
6.55000000e+01	9.94471458e-01
6.65000000e+01	9.94369964e-01
6.75000000e+01	9.94266602e-01
6.85000000e+01	9.94161361e-01
6.95000000e+01	9.94054226e-01
7.05000000e+01	9.93945186e-01
7.15000000e+01	9.93834227e-01
7.25000000e+01	9.93721336e-01
7.35000000e+01	9.93606499e-01
7.45000000e+01	9.93489704e-01
7.55000000e+01	9.93370937e-01
7.65000000e+01	9.93250186e-01
7.75000000e+01	9.93127436e-01
7.85000000e+01	9.93002674e-01
7.95000000e+01	9.92875888e-01
8.05000000e+01	9.92747063e-01
8.15000000e+01	9.92616187e-01
8.25000000e+01	9.92483247e-01
8.35000000e+01	9.92348228e-01
8.45000000e+01	9.92211118e-01
8.55000000e+01	9.92071903e-01
8.65000000e+01	9.91930571e-01
8.75000000e+01	9.91787107e-01
8.85000000e+01	9.91641499e-01
8.95000000e+01	9.91493734e-01
9.05000000e+01	9.91343798e-01
9.15000000e+01	9.91191679e-01
9.25000000e+01	9.91037363e-01
9.35000000e+01	9.90880838e-01
9.45000000e+01	9.90722090e-01
9.55000000e+01	9.90561107e-01
9.65000000e+01	9.90397876e-01
9.75000000e+01	9.90232384e-01
9.85000000e+01	9.90064619e-01
9.95000000e+01	9.89894568e-01
1.00500000e+02	9.89722219e-01
1.01500000e+02	9.89547559e-01
1.02500000e+02	9.89370576e-01
1.03500000e+02	9.89191258e-01
1.04500000e+02	9.89009593e-01
1.05500000e+02	9.88825568e-01
1.06500000e+02	9.88639173e-01
1.07500000e+02	9.88450395e-01
1.08500000e+02	9.88259222e-01
1.09500000e+02	9.88065643e-01
1.10500000e+02	9.87869647e-01
1.11500000e+02	9.87671222e-01
1.12500000e+02	9.87470357e-01
1.13500000e+02	9.87267042e-01
1.14500000e+02	9.87061264e-01
1.15500000e+02	9.86853014e-01
1.16500000e+02	9.86642280e-01
1.17500000e+02	9.86429053e-01
1.18500000e+02	9.86213322e-01
1.19500000e+02	9.85995077e-01
1.20500000e+02	9.85774307e-01
1.21500000e+02	9.85551003e-01
1.22500000e+02	9.85325155e-01
1.23500000e+02	9.85096753e-01
1.24500000e+02	9.84865789e-01
1.25500000e+02	9.84632252e-01
1.26500000e+02	9.84396134e-01
1.27500000e+02	9.84157426e-01
1.28500000e+02	9.83916119e-01
1.29500000e+02	9.83672204e-01
1.30500000e+02	9.83425672e-01
1.31500000e+02	9.83176517e-01
1.32500000e+02	9.82924728e-01
1.33500000e+02	9.82670300e-01
1.34500000e+02	9.82413222e-01
1.35500000e+02	9.82153489e-01
1.36500000e+02	9.81891093e-01
1.37500000e+02	9.81626026e-01
1.38500000e+02	9.81358281e-01
1.39500000e+02	9.81087852e-01
1.40500000e+02	9.80814731e-01
1.41500000e+02	9.80538912e-01
1.42500000e+02	9.80260390e-01
1.43500000e+02	9.79979156e-01
1.44500000e+02	9.79695206e-01
1.45500000e+02	9.79408534e-01
1.46500000e+02	9.79119134e-01
1.47500000e+02	9.78827001e-01
1.48500000e+02	9.78532128e-01
1.49500000e+02	9.78234512e-01
1.50500000e+02	9.77934147e-01
1.51500000e+02	9.77631028e-01
1.52500000e+02	9.77325151e-01
1.53500000e+02	9.77016512e-01
1.54500000e+02	9.76705106e-01
1.55500000e+02	9.76390928e-01
1.56500000e+02	9.76073975e-01
1.57500000e+02	9.75754243e-01
1.58500000e+02	9.75431729e-01
1.59500000e+02	9.75106429e-01
1.60500000e+02	9.74778339e-01
1.61500000e+02	9.74447456e-01
1.62500000e+02	9.74113778e-01
1.63500000e+02	9.73777302e-01
1.64500000e+02	9.73438024e-01
1.65500000e+02	9.73095943e-01
1.66500000e+02	9.72751056e-01
1.67500000e+02	9.72403361e-01
1.68500000e+02	9.72052855e-01
1.69500000e+02	9.71699536e-01
1.70500000e+02	9.71343404e-01
1.71500000e+02	9.70984455e-01
1.72500000e+02	9.70622689e-01
1.73500000e+02	9.70258104e-01
1.74500000e+02	9.69890698e-01
1.75500000e+02	9.69520471e-01
1.76500000e+02	9.69147420e-01
1.77500000e+02	9.68771547e-01
1.78500000e+02	9.68392848e-01
1.79500000e+02	9.68011324e-01
1.80500000e+02	9.67626973e-01
1.81500000e+02	9.67239795e-01
1.82500000e+02	9.66849790e-01
1.83500000e+02	9.66456957e-01
1.84500000e+02	9.66061296e-01
1.85500000e+02	9.65662805e-01
1.86500000e+02	9.65261486e-01
1.87500000e+02	9.64857337e-01
1.88500000e+02	9.64450359e-01
1.89500000e+02	9.64040552e-01
1.90500000e+02	9.63627914e-01
1.91500000e+02	9.63212447e-01
1.92500000e+02	9.62794150e-01
1.93500000e+02	9.62373024e-01
1.94500000e+02	9.61949067e-01
1.95500000e+02	9.61522281e-01
1.96500000e+02	9.61092665e-01
1.97500000e+02	9.60660220e-01
1.98500000e+02	9.60224944e-01
1.99500000e+02	9.59786839e-01
2.00500000e+02	9.59345904e-01
2.01500000e+02	9.58902139e-01
2.02500000e+02	9.58455544e-01
2.03500000e+02	9.58006119e-01
2.04500000e+02	9.57553863e-01
2.05500000e+02	9.57098776e-01
2.06500000e+02	9.56640858e-01
2.07500000e+02	9.56180109e-01
2.08500000e+02	9.55716527e-01
2.09500000e+02	9.55250111e-01
2.10500000e+02	9.54780862e-01
2.11500000e+02	9.54308778e-01
2.12500000e+02	9.53833859e-01
2.13500000e+02	9.53356102e-01
2.14500000e+02	9.52875507e-01
2.15500000e+02	9.52392071e-01
2.16500000e+02	9.51905794e-01
2.17500000e+02	9.51416674e-01
2.18500000e+02	9.50924707e-01
2.19500000e+02	9.50429893e-01
2.20500000e+02	9.49932229e-01
2.21500000e+02	9.49431711e-01
2.22500000e+02	9.48928336e-01
2.23500000e+02	9.48422103e-01
2.24500000e+02	9.47913006e-01
2.25500000e+02	9.47401043e-01
2.26500000e+02	9.46886208e-01
2.27500000e+02	9.46368499e-01
2.28500000e+02	9.45847909e-01
2.29500000e+02	9.45324435e-01
2.30500000e+02	9.44798070e-01
2.31500000e+02	9.44268809e-01
2.32500000e+02	9.43736646e-01
2.33500000e+02	9.43201574e-01
2.34500000e+02	9.42663586e-01
2.35500000e+02	9.42122676e-01
2.36500000e+02	9.41578834e-01
2.37500000e+02	9.41032054e-01
2.38500000e+02	9.40482326e-01
2.39500000e+02	9.39929642e-01
2.40500000e+02	9.39373991e-01
2.41500000e+02	9.38815363e-01
2.42500000e+02	9.38253749e-01
2.43500000e+02	9.37689136e-01
2.44500000e+02	9.37121512e-01
2.45500000e+02	9.36550866e-01
2.46500000e+02	9.35977185e-01
2.47500000e+02	9.35400454e-01
2.48500000e+02	9.34820660e-01
2.49500000e+02	9.34237788e-01
2.50500000e+02	9.33651822e-01
2.51500000e+02	9.33062746e-01
2.52500000e+02	9.32470543e-01
2.53500000e+02	9.31875196e-01
2.54500000e+02	9.31276685e-01
2.55500000e+02	9.30674992e-01
2.56500000e+02	9.30070097e-01
2.57500000e+02	9.29461979e-01
2.58500000e+02	9.28850617e-01
2.59500000e+02	9.28235987e-01
2.60500000e+02	9.27618067e-01
2.61500000e+02	9.26996832e-01
2.62500000e+02	9.26372257e-01
2.63500000e+02	9.25744317e-01
2.64500000e+02	9.25112983e-01
2.65500000e+02	9.24478229e-01
2.66500000e+02	9.23840024e-01
2.67500000e+02	9.23198340e-01
2.68500000e+02	9.22553144e-01
2.69500000e+02	9.21904404e-01
2.70500000e+02	9.21252088e-01
2.71500000e+02	9.20596161e-01
2.72500000e+02	9.19936587e-01
2.73500000e+02	9.19273329e-01
2.74500000e+02	9.18606350e-01
2.75500000e+02	9.17935611e-01
2.76500000e+02	9.17261071e-01
2.77500000e+02	9.16582688e-01
2.78500000e+02	9.15900420e-01
2.79500000e+02	9.15214222e-01
2.80500000e+02	9.14524049e-01
2.81500000e+02	9.13829853e-01
2.82500000e+02	9.13131587e-01
2.83500000e+02	9.12429201e-01
2.84500000e+02	9.11722644e-01
2.85500000e+02	9.11011862e-01
2.86500000e+02	9.10296802e-01
2.87500000e+02	9.09577409e-01
2.88500000e+02	9.08853625e-01
2.89500000e+02	9.08125391e-01
2.90500000e+02	9.07392648e-01
2.91500000e+02	9.06655333e-01
2.92500000e+02	9.05913383e-01
2.93500000e+02	9.05166733e-01
2.94500000e+02	9.04415316e-01
2.95500000e+02	9.03659064e-01
2.96500000e+02	9.02897906e-01
2.97500000e+02	9.02131771e-01
2.98500000e+02	9.01360585e-01
2.99500000e+02	9.00584272e-01
3.00500000e+02	8.99802757e-01
3.01500000e+02	8.99015958e-01
3.02500000e+02	8.98223796e-01
3.03500000e+02	8.97426188e-01
3.04500000e+02	8.96623050e-01
3.05500000e+02	8.95814295e-01
3.06500000e+02	8.94999834e-01
3.07500000e+02	8.94179578e-01
3.08500000e+02	8.93353435e-01
3.09500000e+02	8.92521310e-01
3.10500000e+02	8.91683107e-01
3.11500000e+02	8.90838729e-01
3.12500000e+02	8.89988074e-01
3.13500000e+02	8.89131043e-01
3.14500000e+02	8.88267529e-01
3.15500000e+02	8.87397428e-01
3.16500000e+02	8.86520632e-01
3.17500000e+02	8.85637029e-01
3.18500000e+02	8.84746509e-01
3.19500000e+02	8.83848957e-01
3.20500000e+02	8.82944257e-01
3.21500000e+02	8.82032290e-01
3.22500000e+02	8.81112937e-01
3.23500000e+02	8.80186074e-01
3.24500000e+02	8.79251579e-01
3.25500000e+02	8.78309323e-01
3.26500000e+02	8.77359179e-01
3.27500000e+02	8.76401016e-01
3.28500000e+02	8.75434701e-01
3.29500000e+02	8.74460099e-01
3.30500000e+02	8.73477075e-01
3.31500000e+02	8.72485488e-01
3.32500000e+02	8.71485199e-01
3.33500000e+02	8.70476064e-01
3.34500000e+02	8.69457938e-01
3.35500000e+02	8.68430675e-01
3.36500000e+02	8.67394126e-01
3.37500000e+02	8.66348139e-01
3.38500000e+02	8.65292563e-01
3.39500000e+02	8.64227242e-01
3.40500000e+02	8.63152020e-01
3.41500000e+02	8.62066738e-01
3.42500000e+02	8.60971236e-01
3.43500000e+02	8.59865351e-01
3.44500000e+02	8.58748920e-01
3.45500000e+02	8.57621776e-01
3.46500000e+02	8.56483752e-01
3.47500000e+02	8.55334678e-01
3.48500000e+02	8.54174384e-01
3.49500000e+02	8.53002695e-01
3.50500000e+02	8.51819438e-01
3.51500000e+02	8.50624437e-01
3.52500000e+02	8.49417513e-01
3.53500000e+02	8.48198488e-01
3.54500000e+02	8.46967180e-01
3.55500000e+02	8.45723407e-01
3.56500000e+02	8.44466986e-01
3.57500000e+02	8.43197731e-01
3.58500000e+02	8.41915456e-01
3.59500000e+02	8.40619973e-01
3.60500000e+02	8.39311093e-01
3.61500000e+02	8.37988626e-01
3.62500000e+02	8.36652380e-01
3.63500000e+02	8.35302164e-01
3.64500000e+02	8.33937783e-01
3.65500000e+02	8.32559043e-01
3.66500000e+02	8.31165748e-01
3.67500000e+02	8.29757703e-01
3.68500000e+02	8.28334711e-01
3.69500000e+02	8.26896574e-01
3.70500000e+02	8.25443093e-01
3.71500000e+02	8.23974069e-01
3.72500000e+02	8.22489304e-01
3.73500000e+02	8.20988597e-01
3.74500000e+02	8.19471747e-01
3.75500000e+02	8.17938555e-01
3.76500000e+02	8.16388821e-01
3.77500000e+02	8.14822342e-01
3.78500000e+02	8.13238918e-01
3.79500000e+02	8.11638349e-01
3.80500000e+02	8.10020434e-01
3.81500000e+02	8.08384973e-01
3.82500000e+02	8.06731767e-01
3.83500000e+02	8.05060614e-01
3.84500000e+02	8.03371318e-01
3.85500000e+02	8.01663680e-01
3.86500000e+02	7.99937502e-01
3.87500000e+02	7.98192588e-01
3.88500000e+02	7.96428743e-01
3.89500000e+02	7.94645773e-01
3.90500000e+02	7.92843484e-01
3.91500000e+02	7.91021686e-01
3.92500000e+02	7.89180188e-01
3.93500000e+02	7.87318802e-01
3.94500000e+02	7.85437343e-01
3.95500000e+02	7.83535624e-01
3.96500000e+02	7.81613465e-01
3.97500000e+02	7.79670684e-01
3.98500000e+02	7.77707104e-01
3.99500000e+02	7.75722551e-01
4.00500000e+02	7.73716850e-01
4.01500000e+02	7.71689834e-01
4.02500000e+02	7.69641335e-01
4.03500000e+02	7.67571189e-01
4.04500000e+02	7.65479237e-01
4.05500000e+02	7.63365323e-01
4.06500000e+02	7.61229292e-01
4.07500000e+02	7.59070997e-01
4.08500000e+02	7.56890292e-01
4.09500000e+02	7.54687036e-01
4.10500000e+02	7.52461093e-01
4.11500000e+02	7.50212332e-01
4.12500000e+02	7.47940623e-01
4.13500000e+02	7.45645847e-01
4.14500000e+02	7.43327884e-01
4.15500000e+02	7.40986624e-01
4.16500000e+02	7.38621959e-01
4.17500000e+02	7.36233789e-01
4.18500000e+02	7.33822019e-01
4.19500000e+02	7.31386558e-01
4.20500000e+02	7.28927325e-01
4.21500000e+02	7.26444241e-01
4.22500000e+02	7.23937238e-01
4.23500000e+02	7.21406250e-01
4.24500000e+02	7.18851220e-01
4.25500000e+02	7.16272100e-01
4.26500000e+02	7.13668845e-01
4.27500000e+02	7.11041419e-01
4.28500000e+02	7.08389794e-01
4.29500000e+02	7.05713949e-01
4.30500000e+02	7.03013871e-01
4.31500000e+02	7.00289554e-01
4.32500000e+02	6.97541000e-01
4.33500000e+02	6.94768219e-01
4.34500000e+02	6.91971229e-01
4.35500000e+02	6.89150058e-01
4.36500000e+02	6.86304739e-01
4.37500000e+02	6.83435316e-01
4.38500000e+02	6.80541841e-01
4.39500000e+02	6.77624373e-01
4.40500000e+02	6.74682981e-01
4.41500000e+02	6.71717744e-01
4.42500000e+02	6.68728746e-01
4.43500000e+02	6.65716082e-01
4.44500000e+02	6.62679857e-01
4.45500000e+02	6.59620182e-01
4.46500000e+02	6.56537180e-01
4.47500000e+02	6.53430980e-01
4.48500000e+02	6.50301721e-01
4.49500000e+02	6.47149552e-01
4.50500000e+02	6.43974629e-01
4.51500000e+02	6.40777119e-01
4.52500000e+02	6.37557196e-01
4.53500000e+02	6.34315045e-01
4.54500000e+02	6.31050858e-01
4.55500000e+02	6.27764837e-01
4.56500000e+02	6.24457193e-01
4.57500000e+02	6.21128145e-01
4.58500000e+02	6.17777924e-01
4.59500000e+02	6.14406766e-01
4.60500000e+02	6.11014920e-01
4.61500000e+02	6.07602641e-01
4.62500000e+02	6.04170194e-01
4.63500000e+02	6.00717856e-01
4.64500000e+02	5.97245909e-01
4.65500000e+02	5.93754648e-01
4.66500000e+02	5.90244376e-01
4.67500000e+02	5.86715405e-01
4.68500000e+02	5.83168059e-01
4.69500000e+02	5.79602671e-01
4.70500000e+02	5.76019584e-01
4.71500000e+02	5.72419151e-01
4.72500000e+02	5.68801736e-01
4.73500000e+02	5.65167716e-01
4.74500000e+02	5.61517477e-01
4.75500000e+02	5.57851417e-01
4.76500000e+02	5.54169947e-01
4.77500000e+02	5.50473488e-01
4.78500000e+02	5.46762478e-01
4.79500000e+02	5.43037363e-01
4.80500000e+02	5.39298607e-01
4.81500000e+02	5.35546686e-01
4.82500000e+02	5.31782092e-01
4.83500000e+02	5.28005330e-01
4.84500000e+02	5.24216924e-01
4.85500000e+02	5.20417411e-01
4.86500000e+02	5.16607348e-01
4.87500000e+02	5.12787308e-01
4.88500000e+02	5.08957883e-01
4.89500000e+02	5.05119683e-01
4.90500000e+02	5.01273337e-01
4.91500000e+02	4.97419497e-01
4.92500000e+02	4.93558833e-01
4.93500000e+02	4.89692037e-01
4.94500000e+02	4.85819824e-01
4.95500000e+02	4.81942930e-01
4.96500000e+02	4.78062116e-01
4.97500000e+02	4.74178164e-01
4.98500000e+02	4.70291881e-01
4.99500000e+02	4.66404100e-01
5.00500000e+02	4.62515676e-01
5.01500000e+02	4.58627490e-01
5.02500000e+02	4.54740448e-01
5.03500000e+02	4.50855481e-01
5.04500000e+02	4.46973545e-01
5.05500000e+02	4.43095618e-01
5.06500000e+02	4.39222707e-01
5.07500000e+02	4.35355839e-01
5.08500000e+02	4.31496067e-01
5.09500000e+02	4.27644464e-01
5.10500000e+02	4.23802126e-01
5.11500000e+02	4.19970169e-01
5.12500000e+02	4.16149730e-01
5.13500000e+02	4.12341962e-01
5.14500000e+02	4.08548034e-01
5.15500000e+02	4.04769130e-01
5.16500000e+02	4.01006448e-01
5.17500000e+02	3.97261195e-01
5.18500000e+02	3.93534586e-01
5.19500000e+02	3.89827842e-01
5.20500000e+02	3.86142188e-01
5.21500000e+02	3.82478847e-01
5.22500000e+02	3.78839043e-01
5.23500000e+02	3.75223992e-01
5.24500000e+02	3.71634901e-01
5.25500000e+02	3.68072966e-01
5.26500000e+02	3.64539369e-01
5.27500000e+02	3.61035272e-01
5.28500000e+02	3.57561816e-01
5.29500000e+02	3.54120117e-01
5.30500000e+02	3.50711262e-01
5.31500000e+02	3.47336307e-01
5.32500000e+02	3.43996274e-01
5.33500000e+02	3.40692146e-01
5.34500000e+02	3.37424866e-01
5.35500000e+02	3.34195333e-01
5.36500000e+02	3.31004402e-01
5.37500000e+02	3.27852876e-01
5.38500000e+02	3.24741511e-01
5.39500000e+02	3.21671008e-01
5.40500000e+02	3.18642014e-01
5.41500000e+02	3.15655122e-01
5.42500000e+02	3.12710866e-01
5.43500000e+02	3.09809723e-01
5.44500000e+02	3.06952112e-01
5.45500000e+02	3.04138394e-01
5.46500000e+02	3.01368867e-01
5.47500000e+02	2.98643776e-01
5.48500000e+02	2.95963304e-01
5.49500000e+02	2.93327579e-01
5.50500000e+02	2.90736669e-01
5.51500000e+02	2.88190590e-01
5.52500000e+02	2.85689303e-01
5.53500000e+02	2.83232716e-01
5.54500000e+02	2.80820688e-01
5.55500000e+02	2.78453028e-01
5.56500000e+02	2.76129498e-01
5.57500000e+02	2.73849818e-01
5.58500000e+02	2.71613663e-01
5.59500000e+02	2.69420670e-01
5.60500000e+02	2.67270438e-01
5.61500000e+02	2.65162532e-01
5.62500000e+02	2.63096483e-01
5.63500000e+02	2.61071792e-01
5.64500000e+02	2.59087936e-01
5.65500000e+02	2.57144362e-01
5.66500000e+02	2.55240497e-01
5.67500000e+02	2.53375748e-01
5.68500000e+02	2.51549503e-01
5.69500000e+02	2.49761135e-01
5.70500000e+02	2.48010002e-01
5.71500000e+02	2.46295451e-01
5.72500000e+02	2.44616822e-01
5.73500000e+02	2.42973442e-01
5.74500000e+02	2.41364637e-01
5.75500000e+02	2.39789727e-01
5.76500000e+02	2.38248028e-01
5.77500000e+02	2.36738856e-01
5.78500000e+02	2.35261529e-01
5.79500000e+02	2.33815363e-01
5.80500000e+02	2.32399679e-01
5.81500000e+02	2.31013803e-01
5.82500000e+02	2.29657062e-01
5.83500000e+02	2.28328793e-01
5.84500000e+02	2.27028336e-01
5.85500000e+02	2.25755042e-01
5.86500000e+02	2.24508268e-01
5.87500000e+02	2.23287379e-01
5.88500000e+02	2.22091751e-01
5.89500000e+02	2.20920769e-01
5.90500000e+02	2.19773828e-01
5.91500000e+02	2.18650335e-01
5.92500000e+02	2.17549704e-01
5.93500000e+02	2.16471365e-01
5.94500000e+02	2.15414755e-01
5.95500000e+02	2.14379326e-01
5.96500000e+02	2.13364540e-01
5.97500000e+02	2.12369869e-01
5.98500000e+02	2.11394799e-01
5.99500000e+02	2.10438827e-01
6.00500000e+02	2.09501463e-01
6.01500000e+02	2.08582227e-01
6.02500000e+02	2.07680650e-01
6.03500000e+02	2.06796278e-01
6.04500000e+02	2.05928666e-01
6.05500000e+02	2.05077382e-01
6.06500000e+02	2.04242002e-01
6.07500000e+02	2.03422119e-01
6.08500000e+02	2.02617332e-01
6.09500000e+02	2.01827254e-01
6.10500000e+02	2.01051508e-01
6.11500000e+02	2.00289728e-01
6.12500000e+02	1.99541559e-01
6.13500000e+02	1.98806656e-01
6.14500000e+02	1.98084686e-01
6.15500000e+02	1.97375325e-01
6.16500000e+02	1.96678259e-01
6.17500000e+02	1.95993184e-01
6.18500000e+02	1.95319809e-01
6.19500000e+02	1.94657849e-01
6.20500000e+02	1.94007031e-01
6.21500000e+02	1.93367092e-01
6.22500000e+02	1.92737778e-01
6.23500000e+02	1.92118843e-01
6.24500000e+02	1.91510053e-01
6.25500000e+02	1.90911181e-01
6.26500000e+02	1.90322013e-01
6.27500000e+02	1.89742340e-01
6.28500000e+02	1.89171964e-01
6.29500000e+02	1.88610696e-01
6.30500000e+02	1.88058356e-01
6.31500000e+02	1.87514773e-01
6.32500000e+02	1.86979784e-01
6.33500000e+02	1.86453235e-01
6.34500000e+02	1.85934982e-01
6.35500000e+02	1.85424888e-01
6.36500000e+02	1.84922824e-01
6.37500000e+02	1.84428671e-01
6.38500000e+02	1.83942319e-01
6.39500000e+02	1.83463662e-01
6.40500000e+02	1.82992606e-01
6.41500000e+02	1.82529065e-01
6.42500000e+02	1.82072955e-01
6.43500000e+02	1.81624217e-01
6.44500000e+02	1.81182762e-01
6.45500000e+02	1.80748582e-01
6.46500000e+02	1.80321576e-01
6.47500000e+02	1.79901690e-01
6.48500000e+02	1.79488927e-01
6.49500000e+02	1.79083242e-01
6.50500000e+02	1.78684620e-01
6.51500000e+02	1.78293046e-01
6.52500000e+02	1.77908512e-01
6.53500000e+02	1.77531004e-01
6.54500000e+02	1.77160545e-01
6.55500000e+02	1.76797108e-01
6.56500000e+02	1.76440750e-01
6.57500000e+02	1.76091442e-01
6.58500000e+02	1.75749247e-01
6.59500000e+02	1.75414166e-01
6.60500000e+02	1.75086236e-01
