# Profil de Te au temps 1.900999999999955e-11 
# simu : /Volumes/MERCURE/JOBS/Zeq1_tanh_50mic_7p5e19_B0_20ps/GNU/Te@y-c.set
# col 0 : abscisse (um)
# col 1 : Te (keV)
5.00000000e-01	9.61048597e-01
1.50000000e+00	9.61046625e-01
2.50000000e+00	9.61042869e-01
3.50000000e+00	9.61037242e-01
4.50000000e+00	9.61029686e-01
5.50000000e+00	9.61020245e-01
6.50000000e+00	9.61008917e-01
7.50000000e+00	9.60995703e-01
8.50000000e+00	9.60980602e-01
9.50000000e+00	9.60963614e-01
1.05000000e+01	9.60944741e-01
1.15000000e+01	9.60923983e-01
1.25000000e+01	9.60901340e-01
1.35000000e+01	9.60876814e-01
1.45000000e+01	9.60850404e-01
1.55000000e+01	9.60822112e-01
1.65000000e+01	9.60791938e-01
1.75000000e+01	9.60759884e-01
1.85000000e+01	9.60725951e-01
1.95000000e+01	9.60690138e-01
2.05000000e+01	9.60652449e-01
2.15000000e+01	9.60612882e-01
2.25000000e+01	9.60571440e-01
2.35000000e+01	9.60528125e-01
2.45000000e+01	9.60482936e-01
2.55000000e+01	9.60435875e-01
2.65000000e+01	9.60386945e-01
2.75000000e+01	9.60336145e-01
2.85000000e+01	9.60283478e-01
2.95000000e+01	9.60228946e-01
3.05000000e+01	9.60172549e-01
3.15000000e+01	9.60114289e-01
3.25000000e+01	9.60054168e-01
3.35000000e+01	9.59992187e-01
3.45000000e+01	9.59928349e-01
3.55000000e+01	9.59862655e-01
3.65000000e+01	9.59795107e-01
3.75000000e+01	9.59725707e-01
3.85000000e+01	9.59654456e-01
3.95000000e+01	9.59581357e-01
4.05000000e+01	9.59506412e-01
4.15000000e+01	9.59429622e-01
4.25000000e+01	9.59350990e-01
4.35000000e+01	9.59270518e-01
4.45000000e+01	9.59188207e-01
4.55000000e+01	9.59104061e-01
4.65000000e+01	9.59018081e-01
4.75000000e+01	9.58930270e-01
4.85000000e+01	9.58840629e-01
4.95000000e+01	9.58749161e-01
5.05000000e+01	9.58655869e-01
5.15000000e+01	9.58560755e-01
5.25000000e+01	9.58463821e-01
5.35000000e+01	9.58365069e-01
5.45000000e+01	9.58264503e-01
5.55000000e+01	9.58162124e-01
5.65000000e+01	9.58057935e-01
5.75000000e+01	9.57951939e-01
5.85000000e+01	9.57844137e-01
5.95000000e+01	9.57734534e-01
6.05000000e+01	9.57623130e-01
6.15000000e+01	9.57509930e-01
6.25000000e+01	9.57394934e-01
6.35000000e+01	9.57278147e-01
6.45000000e+01	9.57159571e-01
6.55000000e+01	9.57039207e-01
6.65000000e+01	9.56917060e-01
6.75000000e+01	9.56793131e-01
6.85000000e+01	9.56667424e-01
6.95000000e+01	9.56539940e-01
7.05000000e+01	9.56410683e-01
7.15000000e+01	9.56279655e-01
7.25000000e+01	9.56146859e-01
7.35000000e+01	9.56012298e-01
7.45000000e+01	9.55875974e-01
7.55000000e+01	9.55737890e-01
7.65000000e+01	9.55598049e-01
7.75000000e+01	9.55456453e-01
7.85000000e+01	9.55313105e-01
7.95000000e+01	9.55168007e-01
8.05000000e+01	9.55021163e-01
8.15000000e+01	9.54872574e-01
8.25000000e+01	9.54722244e-01
8.35000000e+01	9.54570174e-01
8.45000000e+01	9.54416368e-01
8.55000000e+01	9.54260828e-01
8.65000000e+01	9.54103556e-01
8.75000000e+01	9.53944555e-01
8.85000000e+01	9.53783827e-01
8.95000000e+01	9.53621375e-01
9.05000000e+01	9.53457201e-01
9.15000000e+01	9.53291307e-01
9.25000000e+01	9.53123696e-01
9.35000000e+01	9.52954369e-01
9.45000000e+01	9.52783330e-01
9.55000000e+01	9.52610579e-01
9.65000000e+01	9.52436120e-01
9.75000000e+01	9.52259954e-01
9.85000000e+01	9.52082084e-01
9.95000000e+01	9.51902511e-01
1.00500000e+02	9.51721237e-01
1.01500000e+02	9.51538263e-01
1.02500000e+02	9.51353593e-01
1.03500000e+02	9.51167226e-01
1.04500000e+02	9.50979166e-01
1.05500000e+02	9.50789413e-01
1.06500000e+02	9.50597970e-01
1.07500000e+02	9.50404836e-01
1.08500000e+02	9.50210014e-01
1.09500000e+02	9.50013506e-01
1.10500000e+02	9.49815311e-01
1.11500000e+02	9.49615431e-01
1.12500000e+02	9.49413868e-01
1.13500000e+02	9.49210621e-01
1.14500000e+02	9.49005692e-01
1.15500000e+02	9.48799082e-01
1.16500000e+02	9.48590791e-01
1.17500000e+02	9.48380819e-01
1.18500000e+02	9.48169167e-01
1.19500000e+02	9.47955836e-01
1.20500000e+02	9.47740825e-01
1.21500000e+02	9.47524134e-01
1.22500000e+02	9.47305763e-01
1.23500000e+02	9.47085713e-01
1.24500000e+02	9.46863982e-01
1.25500000e+02	9.46640570e-01
1.26500000e+02	9.46415478e-01
1.27500000e+02	9.46188703e-01
1.28500000e+02	9.45960246e-01
1.29500000e+02	9.45730105e-01
1.30500000e+02	9.45498280e-01
1.31500000e+02	9.45264768e-01
1.32500000e+02	9.45029568e-01
1.33500000e+02	9.44792680e-01
1.34500000e+02	9.44554100e-01
1.35500000e+02	9.44313828e-01
1.36500000e+02	9.44071861e-01
1.37500000e+02	9.43828197e-01
1.38500000e+02	9.43582834e-01
1.39500000e+02	9.43335770e-01
1.40500000e+02	9.43087002e-01
1.41500000e+02	9.42836526e-01
1.42500000e+02	9.42584339e-01
1.43500000e+02	9.42330438e-01
1.44500000e+02	9.42074821e-01
1.45500000e+02	9.41817482e-01
1.46500000e+02	9.41558418e-01
1.47500000e+02	9.41297626e-01
1.48500000e+02	9.41035101e-01
1.49500000e+02	9.40770838e-01
1.50500000e+02	9.40504833e-01
1.51500000e+02	9.40237081e-01
1.52500000e+02	9.39967577e-01
1.53500000e+02	9.39696316e-01
1.54500000e+02	9.39423293e-01
1.55500000e+02	9.39148500e-01
1.56500000e+02	9.38871934e-01
1.57500000e+02	9.38593587e-01
1.58500000e+02	9.38313454e-01
1.59500000e+02	9.38031527e-01
1.60500000e+02	9.37747800e-01
1.61500000e+02	9.37462265e-01
1.62500000e+02	9.37174917e-01
1.63500000e+02	9.36885746e-01
1.64500000e+02	9.36594745e-01
1.65500000e+02	9.36301907e-01
1.66500000e+02	9.36007222e-01
1.67500000e+02	9.35710683e-01
1.68500000e+02	9.35412280e-01
1.69500000e+02	9.35112005e-01
1.70500000e+02	9.34809848e-01
1.71500000e+02	9.34505800e-01
1.72500000e+02	9.34199850e-01
1.73500000e+02	9.33891990e-01
1.74500000e+02	9.33582208e-01
1.75500000e+02	9.33270494e-01
1.76500000e+02	9.32956837e-01
1.77500000e+02	9.32641225e-01
1.78500000e+02	9.32323648e-01
1.79500000e+02	9.32004094e-01
1.80500000e+02	9.31682550e-01
1.81500000e+02	9.31359004e-01
1.82500000e+02	9.31033444e-01
1.83500000e+02	9.30705857e-01
1.84500000e+02	9.30376230e-01
1.85500000e+02	9.30044548e-01
1.86500000e+02	9.29710800e-01
1.87500000e+02	9.29374970e-01
1.88500000e+02	9.29037044e-01
1.89500000e+02	9.28697007e-01
1.90500000e+02	9.28354845e-01
1.91500000e+02	9.28010542e-01
1.92500000e+02	9.27664084e-01
1.93500000e+02	9.27315453e-01
1.94500000e+02	9.26964634e-01
1.95500000e+02	9.26611610e-01
1.96500000e+02	9.26256365e-01
1.97500000e+02	9.25898881e-01
1.98500000e+02	9.25539142e-01
1.99500000e+02	9.25177128e-01
2.00500000e+02	9.24812824e-01
2.01500000e+02	9.24446209e-01
2.02500000e+02	9.24077265e-01
2.03500000e+02	9.23705974e-01
2.04500000e+02	9.23332316e-01
2.05500000e+02	9.22956271e-01
2.06500000e+02	9.22577820e-01
2.07500000e+02	9.22196942e-01
2.08500000e+02	9.21813616e-01
2.09500000e+02	9.21427823e-01
2.10500000e+02	9.21039539e-01
2.11500000e+02	9.20648745e-01
2.12500000e+02	9.20255417e-01
2.13500000e+02	9.19859534e-01
2.14500000e+02	9.19461074e-01
2.15500000e+02	9.19060012e-01
2.16500000e+02	9.18656326e-01
2.17500000e+02	9.18249993e-01
2.18500000e+02	9.17840988e-01
2.19500000e+02	9.17429288e-01
2.20500000e+02	9.17014867e-01
2.21500000e+02	9.16597700e-01
2.22500000e+02	9.16177763e-01
2.23500000e+02	9.15755030e-01
2.24500000e+02	9.15329475e-01
2.25500000e+02	9.14901071e-01
2.26500000e+02	9.14469793e-01
2.27500000e+02	9.14035612e-01
2.28500000e+02	9.13598502e-01
2.29500000e+02	9.13158435e-01
2.30500000e+02	9.12715382e-01
2.31500000e+02	9.12269316e-01
2.32500000e+02	9.11820209e-01
2.33500000e+02	9.11368029e-01
2.34500000e+02	9.10912749e-01
2.35500000e+02	9.10454339e-01
2.36500000e+02	9.09992768e-01
2.37500000e+02	9.09528006e-01
2.38500000e+02	9.09060023e-01
2.39500000e+02	9.08588786e-01
2.40500000e+02	9.08114264e-01
2.41500000e+02	9.07636426e-01
2.42500000e+02	9.07155239e-01
2.43500000e+02	9.06670670e-01
2.44500000e+02	9.06182687e-01
2.45500000e+02	9.05691256e-01
2.46500000e+02	9.05196343e-01
2.47500000e+02	9.04697915e-01
2.48500000e+02	9.04195936e-01
2.49500000e+02	9.03690372e-01
2.50500000e+02	9.03181188e-01
2.51500000e+02	9.02668348e-01
2.52500000e+02	9.02151816e-01
2.53500000e+02	9.01631556e-01
2.54500000e+02	9.01107530e-01
2.55500000e+02	9.00579703e-01
2.56500000e+02	9.00048036e-01
2.57500000e+02	8.99512491e-01
2.58500000e+02	8.98973031e-01
2.59500000e+02	8.98429615e-01
2.60500000e+02	8.97882207e-01
2.61500000e+02	8.97330765e-01
2.62500000e+02	8.96775250e-01
2.63500000e+02	8.96215622e-01
2.64500000e+02	8.95651840e-01
2.65500000e+02	8.95083863e-01
2.66500000e+02	8.94511650e-01
2.67500000e+02	8.93935158e-01
2.68500000e+02	8.93354345e-01
2.69500000e+02	8.92769169e-01
2.70500000e+02	8.92179586e-01
2.71500000e+02	8.91585553e-01
2.72500000e+02	8.90987026e-01
2.73500000e+02	8.90383960e-01
2.74500000e+02	8.89776311e-01
2.75500000e+02	8.89164033e-01
2.76500000e+02	8.88547080e-01
2.77500000e+02	8.87925406e-01
2.78500000e+02	8.87298966e-01
2.79500000e+02	8.86667710e-01
2.80500000e+02	8.86031593e-01
2.81500000e+02	8.85390566e-01
2.82500000e+02	8.84744580e-01
2.83500000e+02	8.84093587e-01
2.84500000e+02	8.83437538e-01
2.85500000e+02	8.82776382e-01
2.86500000e+02	8.82110069e-01
2.87500000e+02	8.81438549e-01
2.88500000e+02	8.80761770e-01
2.89500000e+02	8.80079680e-01
2.90500000e+02	8.79392227e-01
2.91500000e+02	8.78699359e-01
2.92500000e+02	8.78001023e-01
2.93500000e+02	8.77297164e-01
2.94500000e+02	8.76587728e-01
2.95500000e+02	8.75872662e-01
2.96500000e+02	8.75151908e-01
2.97500000e+02	8.74425413e-01
2.98500000e+02	8.73693119e-01
2.99500000e+02	8.72954970e-01
3.00500000e+02	8.72210909e-01
3.01500000e+02	8.71460878e-01
3.02500000e+02	8.70704818e-01
3.03500000e+02	8.69942671e-01
3.04500000e+02	8.69174377e-01
3.05500000e+02	8.68399877e-01
3.06500000e+02	8.67619110e-01
3.07500000e+02	8.66832016e-01
3.08500000e+02	8.66038532e-01
3.09500000e+02	8.65238597e-01
3.10500000e+02	8.64432147e-01
3.11500000e+02	8.63619122e-01
3.12500000e+02	8.62799455e-01
3.13500000e+02	8.61973084e-01
3.14500000e+02	8.61139943e-01
3.15500000e+02	8.60299967e-01
3.16500000e+02	8.59453091e-01
3.17500000e+02	8.58599248e-01
3.18500000e+02	8.57738371e-01
3.19500000e+02	8.56870393e-01
3.20500000e+02	8.55995246e-01
3.21500000e+02	8.55112860e-01
3.22500000e+02	8.54223168e-01
3.23500000e+02	8.53326098e-01
3.24500000e+02	8.52421582e-01
3.25500000e+02	8.51509549e-01
3.26500000e+02	8.50589926e-01
3.27500000e+02	8.49662643e-01
3.28500000e+02	8.48727627e-01
3.29500000e+02	8.47784806e-01
3.30500000e+02	8.46834105e-01
3.31500000e+02	8.45875450e-01
3.32500000e+02	8.44908768e-01
3.33500000e+02	8.43933984e-01
3.34500000e+02	8.42951022e-01
3.35500000e+02	8.41959806e-01
3.36500000e+02	8.40960259e-01
3.37500000e+02	8.39952305e-01
3.38500000e+02	8.38935866e-01
3.39500000e+02	8.37910865e-01
3.40500000e+02	8.36877222e-01
3.41500000e+02	8.35834860e-01
3.42500000e+02	8.34783699e-01
3.43500000e+02	8.33723659e-01
3.44500000e+02	8.32654659e-01
3.45500000e+02	8.31576621e-01
3.46500000e+02	8.30489462e-01
3.47500000e+02	8.29393101e-01
3.48500000e+02	8.28287456e-01
3.49500000e+02	8.27172446e-01
3.50500000e+02	8.26047988e-01
3.51500000e+02	8.24913999e-01
3.52500000e+02	8.23770395e-01
3.53500000e+02	8.22617095e-01
3.54500000e+02	8.21454013e-01
3.55500000e+02	8.20281065e-01
3.56500000e+02	8.19098168e-01
3.57500000e+02	8.17905238e-01
3.58500000e+02	8.16702188e-01
3.59500000e+02	8.15488935e-01
3.60500000e+02	8.14265393e-01
3.61500000e+02	8.13031477e-01
3.62500000e+02	8.11787101e-01
3.63500000e+02	8.10532181e-01
3.64500000e+02	8.09266630e-01
3.65500000e+02	8.07990362e-01
3.66500000e+02	8.06703293e-01
3.67500000e+02	8.05405336e-01
3.68500000e+02	8.04096406e-01
3.69500000e+02	8.02776417e-01
3.70500000e+02	8.01445283e-01
3.71500000e+02	8.00102919e-01
3.72500000e+02	7.98749239e-01
3.73500000e+02	7.97384159e-01
3.74500000e+02	7.96007593e-01
3.75500000e+02	7.94619456e-01
3.76500000e+02	7.93219665e-01
3.77500000e+02	7.91808134e-01
3.78500000e+02	7.90384779e-01
3.79500000e+02	7.88949518e-01
3.80500000e+02	7.87502268e-01
3.81500000e+02	7.86042944e-01
3.82500000e+02	7.84571465e-01
3.83500000e+02	7.83087750e-01
3.84500000e+02	7.81591717e-01
3.85500000e+02	7.80083285e-01
3.86500000e+02	7.78562375e-01
3.87500000e+02	7.77028908e-01
3.88500000e+02	7.75482803e-01
3.89500000e+02	7.73923985e-01
3.90500000e+02	7.72352375e-01
3.91500000e+02	7.70767898e-01
3.92500000e+02	7.69170479e-01
3.93500000e+02	7.67560042e-01
3.94500000e+02	7.65936514e-01
3.95500000e+02	7.64299824e-01
3.96500000e+02	7.62649900e-01
3.97500000e+02	7.60986671e-01
3.98500000e+02	7.59310069e-01
3.99500000e+02	7.57620025e-01
4.00500000e+02	7.55916473e-01
4.01500000e+02	7.54199349e-01
4.02500000e+02	7.52468587e-01
4.03500000e+02	7.50724126e-01
4.04500000e+02	7.48965904e-01
4.05500000e+02	7.47193861e-01
4.06500000e+02	7.45407940e-01
4.07500000e+02	7.43608085e-01
4.08500000e+02	7.41794239e-01
4.09500000e+02	7.39966351e-01
4.10500000e+02	7.38124368e-01
4.11500000e+02	7.36268241e-01
4.12500000e+02	7.34397922e-01
4.13500000e+02	7.32513365e-01
4.14500000e+02	7.30614526e-01
4.15500000e+02	7.28701363e-01
4.16500000e+02	7.26773835e-01
4.17500000e+02	7.24831905e-01
4.18500000e+02	7.22875536e-01
4.19500000e+02	7.20904695e-01
4.20500000e+02	7.18919349e-01
4.21500000e+02	7.16919470e-01
4.22500000e+02	7.14905029e-01
4.23500000e+02	7.12876002e-01
4.24500000e+02	7.10832366e-01
4.25500000e+02	7.08774101e-01
4.26500000e+02	7.06701189e-01
4.27500000e+02	7.04613613e-01
4.28500000e+02	7.02511362e-01
4.29500000e+02	7.00394424e-01
4.30500000e+02	6.98262791e-01
4.31500000e+02	6.96116457e-01
4.32500000e+02	6.93955420e-01
4.33500000e+02	6.91779679e-01
4.34500000e+02	6.89589237e-01
4.35500000e+02	6.87384098e-01
4.36500000e+02	6.85164269e-01
4.37500000e+02	6.82929761e-01
4.38500000e+02	6.80680587e-01
4.39500000e+02	6.78416763e-01
4.40500000e+02	6.76138306e-01
4.41500000e+02	6.73845238e-01
4.42500000e+02	6.71537584e-01
4.43500000e+02	6.69215369e-01
4.44500000e+02	6.66878624e-01
4.45500000e+02	6.64527381e-01
4.46500000e+02	6.62161676e-01
4.47500000e+02	6.59781546e-01
4.48500000e+02	6.57387033e-01
4.49500000e+02	6.54978181e-01
4.50500000e+02	6.52555036e-01
4.51500000e+02	6.50117650e-01
4.52500000e+02	6.47666074e-01
4.53500000e+02	6.45200365e-01
4.54500000e+02	6.42720582e-01
4.55500000e+02	6.40226786e-01
4.56500000e+02	6.37719044e-01
4.57500000e+02	6.35197422e-01
4.58500000e+02	6.32661993e-01
4.59500000e+02	6.30112831e-01
4.60500000e+02	6.27550014e-01
4.61500000e+02	6.24973622e-01
4.62500000e+02	6.22383740e-01
4.63500000e+02	6.19780455e-01
4.64500000e+02	6.17163859e-01
4.65500000e+02	6.14534046e-01
4.66500000e+02	6.11891113e-01
4.67500000e+02	6.09235163e-01
4.68500000e+02	6.06566300e-01
4.69500000e+02	6.03884633e-01
4.70500000e+02	6.01190276e-01
4.71500000e+02	5.98483343e-01
4.72500000e+02	5.95763957e-01
4.73500000e+02	5.93032242e-01
4.74500000e+02	5.90288326e-01
4.75500000e+02	5.87532342e-01
4.76500000e+02	5.84764429e-01
4.77500000e+02	5.81984729e-01
4.78500000e+02	5.79193387e-01
4.79500000e+02	5.76390557e-01
4.80500000e+02	5.73576395e-01
4.81500000e+02	5.70751063e-01
4.82500000e+02	5.67914728e-01
4.83500000e+02	5.65067564e-01
4.84500000e+02	5.62209748e-01
4.85500000e+02	5.59341467e-01
4.86500000e+02	5.56462909e-01
4.87500000e+02	5.53574273e-01
4.88500000e+02	5.50675762e-01
4.89500000e+02	5.47767587e-01
4.90500000e+02	5.44849965e-01
4.91500000e+02	5.41923121e-01
4.92500000e+02	5.38987288e-01
4.93500000e+02	5.36042706e-01
4.94500000e+02	5.33089623e-01
4.95500000e+02	5.30128296e-01
4.96500000e+02	5.27158990e-01
4.97500000e+02	5.24181980e-01
4.98500000e+02	5.21197548e-01
4.99500000e+02	5.18205988e-01
5.00500000e+02	5.15207601e-01
5.01500000e+02	5.12202701e-01
5.02500000e+02	5.09191610e-01
5.03500000e+02	5.06174661e-01
5.04500000e+02	5.03152199e-01
5.05500000e+02	5.00124579e-01
5.06500000e+02	4.97092166e-01
5.07500000e+02	4.94055340e-01
5.08500000e+02	4.91014489e-01
5.09500000e+02	4.87970016e-01
5.10500000e+02	4.84922335e-01
5.11500000e+02	4.81871871e-01
5.12500000e+02	4.78819064e-01
5.13500000e+02	4.75764366e-01
5.14500000e+02	4.72708240e-01
5.15500000e+02	4.69651164e-01
5.16500000e+02	4.66593628e-01
5.17500000e+02	4.63536134e-01
5.18500000e+02	4.60479201e-01
5.19500000e+02	4.57423355e-01
5.20500000e+02	4.54369139e-01
5.21500000e+02	4.51317108e-01
5.22500000e+02	4.48267829e-01
5.23500000e+02	4.45221881e-01
5.24500000e+02	4.42179857e-01
5.25500000e+02	4.39142358e-01
5.26500000e+02	4.36110001e-01
5.27500000e+02	4.33083412e-01
5.28500000e+02	4.30063226e-01
5.29500000e+02	4.27050091e-01
5.30500000e+02	4.24044663e-01
5.31500000e+02	4.21047606e-01
5.32500000e+02	4.18059595e-01
5.33500000e+02	4.15081309e-01
5.34500000e+02	4.12113436e-01
5.35500000e+02	4.09156670e-01
5.36500000e+02	4.06211708e-01
5.37500000e+02	4.03279252e-01
5.38500000e+02	4.00360009e-01
5.39500000e+02	3.97454683e-01
5.40500000e+02	3.94563984e-01
5.41500000e+02	3.91688619e-01
5.42500000e+02	3.88829292e-01
5.43500000e+02	3.85986708e-01
5.44500000e+02	3.83161564e-01
5.45500000e+02	3.80354556e-01
5.46500000e+02	3.77566369e-01
5.47500000e+02	3.74797683e-01
5.48500000e+02	3.72049168e-01
5.49500000e+02	3.69321482e-01
5.50500000e+02	3.66615274e-01
5.51500000e+02	3.63931177e-01
5.52500000e+02	3.61269812e-01
5.53500000e+02	3.58631782e-01
5.54500000e+02	3.56017675e-01
5.55500000e+02	3.53428059e-01
5.56500000e+02	3.50863484e-01
5.57500000e+02	3.48324479e-01
5.58500000e+02	3.45811553e-01
5.59500000e+02	3.43325190e-01
5.60500000e+02	3.40865852e-01
5.61500000e+02	3.38433979e-01
5.62500000e+02	3.36029982e-01
5.63500000e+02	3.33654250e-01
5.64500000e+02	3.31307143e-01
5.65500000e+02	3.28988998e-01
5.66500000e+02	3.26700120e-01
5.67500000e+02	3.24440792e-01
5.68500000e+02	3.22211265e-01
5.69500000e+02	3.20011764e-01
5.70500000e+02	3.17842488e-01
5.71500000e+02	3.15703605e-01
5.72500000e+02	3.13595257e-01
5.73500000e+02	3.11517559e-01
5.74500000e+02	3.09470598e-01
5.75500000e+02	3.07454436e-01
5.76500000e+02	3.05469107e-01
5.77500000e+02	3.03514618e-01
5.78500000e+02	3.01590955e-01
5.79500000e+02	2.99698076e-01
5.80500000e+02	2.97835917e-01
5.81500000e+02	2.96004389e-01
5.82500000e+02	2.94203384e-01
5.83500000e+02	2.92432769e-01
5.84500000e+02	2.90692394e-01
5.85500000e+02	2.88982086e-01
5.86500000e+02	2.87301655e-01
5.87500000e+02	2.85650894e-01
5.88500000e+02	2.84029579e-01
5.89500000e+02	2.82437468e-01
5.90500000e+02	2.80874308e-01
5.91500000e+02	2.79339828e-01
5.92500000e+02	2.77833747e-01
5.93500000e+02	2.76355772e-01
5.94500000e+02	2.74905597e-01
5.95500000e+02	2.73482908e-01
5.96500000e+02	2.72087381e-01
5.97500000e+02	2.70718684e-01
5.98500000e+02	2.69376478e-01
5.99500000e+02	2.68060416e-01
6.00500000e+02	2.66770148e-01
6.01500000e+02	2.65505318e-01
6.02500000e+02	2.64265563e-01
6.03500000e+02	2.63050522e-01
6.04500000e+02	2.61859826e-01
6.05500000e+02	2.60693109e-01
6.06500000e+02	2.59549999e-01
6.07500000e+02	2.58430126e-01
6.08500000e+02	2.57333120e-01
6.09500000e+02	2.56258611e-01
6.10500000e+02	2.55206228e-01
6.11500000e+02	2.54175603e-01
6.12500000e+02	2.53166371e-01
6.13500000e+02	2.52178167e-01
6.14500000e+02	2.51210630e-01
6.15500000e+02	2.50263402e-01
6.16500000e+02	2.49336126e-01
6.17500000e+02	2.48428453e-01
6.18500000e+02	2.47540034e-01
6.19500000e+02	2.46670526e-01
6.20500000e+02	2.45819591e-01
6.21500000e+02	2.44986893e-01
6.22500000e+02	2.44172105e-01
6.23500000e+02	2.43374901e-01
6.24500000e+02	2.42594963e-01
6.25500000e+02	2.41831976e-01
6.26500000e+02	2.41085633e-01
6.27500000e+02	2.40355630e-01
6.28500000e+02	2.39641671e-01
6.29500000e+02	2.38943464e-01
6.30500000e+02	2.38260723e-01
6.31500000e+02	2.37593169e-01
6.32500000e+02	2.36940527e-01
6.33500000e+02	2.36302531e-01
6.34500000e+02	2.35678917e-01
6.35500000e+02	2.35069430e-01
6.36500000e+02	2.34473820e-01
6.37500000e+02	2.33891841e-01
6.38500000e+02	2.33323256e-01
6.39500000e+02	2.32767832e-01
6.40500000e+02	2.32225342e-01
6.41500000e+02	2.31695565e-01
6.42500000e+02	2.31178287e-01
6.43500000e+02	2.30673297e-01
6.44500000e+02	2.30180393e-01
6.45500000e+02	2.29699375e-01
6.46500000e+02	2.29230051e-01
6.47500000e+02	2.28772235e-01
6.48500000e+02	2.28325745e-01
6.49500000e+02	2.27890403e-01
6.50500000e+02	2.27466040e-01
6.51500000e+02	2.27052489e-01
6.52500000e+02	2.26649590e-01
6.53500000e+02	2.26257187e-01
6.54500000e+02	2.25875129e-01
6.55500000e+02	2.25503271e-01
6.56500000e+02	2.25141472e-01
6.57500000e+02	2.24789594e-01
6.58500000e+02	2.24447508e-01
6.59500000e+02	2.24115085e-01
6.60500000e+02	2.23792204e-01
