# Profil de Te au temps 2.000999999999940e-11 
# simu : /Volumes/MERCURE/JOBS/Zeq1_tanh_50mic_7p5e19_B0_20ps/GNU/Te@y-c.set
# col 0 : abscisse (um)
# col 1 : Te (keV)
5.00000000e-01	9.54322809e-01
1.50000000e+00	9.54321073e-01
2.50000000e+00	9.54317829e-01
3.50000000e+00	9.54312971e-01
4.50000000e+00	9.54306429e-01
5.50000000e+00	9.54298257e-01
6.50000000e+00	9.54288451e-01
7.50000000e+00	9.54277012e-01
8.50000000e+00	9.54263939e-01
9.50000000e+00	9.54249233e-01
1.05000000e+01	9.54232893e-01
1.15000000e+01	9.54214920e-01
1.25000000e+01	9.54195313e-01
1.35000000e+01	9.54174074e-01
1.45000000e+01	9.54151203e-01
1.55000000e+01	9.54126699e-01
1.65000000e+01	9.54100563e-01
1.75000000e+01	9.54072795e-01
1.85000000e+01	9.54043397e-01
1.95000000e+01	9.54012367e-01
2.05000000e+01	9.53979706e-01
2.15000000e+01	9.53945415e-01
2.25000000e+01	9.53909494e-01
2.35000000e+01	9.53871944e-01
2.45000000e+01	9.53832764e-01
2.55000000e+01	9.53791956e-01
2.65000000e+01	9.53749519e-01
2.75000000e+01	9.53705455e-01
2.85000000e+01	9.53659763e-01
2.95000000e+01	9.53612444e-01
3.05000000e+01	9.53563499e-01
3.15000000e+01	9.53512928e-01
3.25000000e+01	9.53460732e-01
3.35000000e+01	9.53406911e-01
3.45000000e+01	9.53351465e-01
3.55000000e+01	9.53294395e-01
3.65000000e+01	9.53235703e-01
3.75000000e+01	9.53175387e-01
3.85000000e+01	9.53113450e-01
3.95000000e+01	9.53049890e-01
4.05000000e+01	9.52984710e-01
4.15000000e+01	9.52917910e-01
4.25000000e+01	9.52849489e-01
4.35000000e+01	9.52779450e-01
4.45000000e+01	9.52707791e-01
4.55000000e+01	9.52634515e-01
4.65000000e+01	9.52559621e-01
4.75000000e+01	9.52483110e-01
4.85000000e+01	9.52404983e-01
4.95000000e+01	9.52325240e-01
5.05000000e+01	9.52243883e-01
5.15000000e+01	9.52160910e-01
5.25000000e+01	9.52076324e-01
5.35000000e+01	9.51990124e-01
5.45000000e+01	9.51902312e-01
5.55000000e+01	9.51812888e-01
5.65000000e+01	9.51721851e-01
5.75000000e+01	9.51629204e-01
5.85000000e+01	9.51534946e-01
5.95000000e+01	9.51439078e-01
6.05000000e+01	9.51341600e-01
6.15000000e+01	9.51242514e-01
6.25000000e+01	9.51141819e-01
6.35000000e+01	9.51039515e-01
6.45000000e+01	9.50935604e-01
6.55000000e+01	9.50830086e-01
6.65000000e+01	9.50722961e-01
6.75000000e+01	9.50614229e-01
6.85000000e+01	9.50503891e-01
6.95000000e+01	9.50391948e-01
7.05000000e+01	9.50278399e-01
7.15000000e+01	9.50163245e-01
7.25000000e+01	9.50046486e-01
7.35000000e+01	9.49928122e-01
7.45000000e+01	9.49808154e-01
7.55000000e+01	9.49686581e-01
7.65000000e+01	9.49563405e-01
7.75000000e+01	9.49438624e-01
7.85000000e+01	9.49312239e-01
7.95000000e+01	9.49184249e-01
8.05000000e+01	9.49054656e-01
8.15000000e+01	9.48923459e-01
8.25000000e+01	9.48790657e-01
8.35000000e+01	9.48656251e-01
8.45000000e+01	9.48520241e-01
8.55000000e+01	9.48382625e-01
8.65000000e+01	9.48243405e-01
8.75000000e+01	9.48102579e-01
8.85000000e+01	9.47960146e-01
8.95000000e+01	9.47816108e-01
9.05000000e+01	9.47670462e-01
9.15000000e+01	9.47523210e-01
9.25000000e+01	9.47374349e-01
9.35000000e+01	9.47223880e-01
9.45000000e+01	9.47071802e-01
9.55000000e+01	9.46918114e-01
9.65000000e+01	9.46762815e-01
9.75000000e+01	9.46605904e-01
9.85000000e+01	9.46447379e-01
9.95000000e+01	9.46287241e-01
1.00500000e+02	9.46125486e-01
1.01500000e+02	9.45962115e-01
1.02500000e+02	9.45797126e-01
1.03500000e+02	9.45630517e-01
1.04500000e+02	9.45462286e-01
1.05500000e+02	9.45292433e-01
1.06500000e+02	9.45120956e-01
1.07500000e+02	9.44947851e-01
1.08500000e+02	9.44773119e-01
1.09500000e+02	9.44596757e-01
1.10500000e+02	9.44418762e-01
1.11500000e+02	9.44239132e-01
1.12500000e+02	9.44057866e-01
1.13500000e+02	9.43874960e-01
1.14500000e+02	9.43690413e-01
1.15500000e+02	9.43504222e-01
1.16500000e+02	9.43316383e-01
1.17500000e+02	9.43126895e-01
1.18500000e+02	9.42935753e-01
1.19500000e+02	9.42742956e-01
1.20500000e+02	9.42548499e-01
1.21500000e+02	9.42352380e-01
1.22500000e+02	9.42154595e-01
1.23500000e+02	9.41955140e-01
1.24500000e+02	9.41754012e-01
1.25500000e+02	9.41551206e-01
1.26500000e+02	9.41346720e-01
1.27500000e+02	9.41140548e-01
1.28500000e+02	9.40932688e-01
1.29500000e+02	9.40723133e-01
1.30500000e+02	9.40511880e-01
1.31500000e+02	9.40298924e-01
1.32500000e+02	9.40084260e-01
1.33500000e+02	9.39867883e-01
1.34500000e+02	9.39649789e-01
1.35500000e+02	9.39429972e-01
1.36500000e+02	9.39208426e-01
1.37500000e+02	9.38985146e-01
1.38500000e+02	9.38760126e-01
1.39500000e+02	9.38533361e-01
1.40500000e+02	9.38304843e-01
1.41500000e+02	9.38074568e-01
1.42500000e+02	9.37842528e-01
1.43500000e+02	9.37608718e-01
1.44500000e+02	9.37373129e-01
1.45500000e+02	9.37135757e-01
1.46500000e+02	9.36896592e-01
1.47500000e+02	9.36655629e-01
1.48500000e+02	9.36412859e-01
1.49500000e+02	9.36168275e-01
1.50500000e+02	9.35921870e-01
1.51500000e+02	9.35673635e-01
1.52500000e+02	9.35423562e-01
1.53500000e+02	9.35171643e-01
1.54500000e+02	9.34917870e-01
1.55500000e+02	9.34662232e-01
1.56500000e+02	9.34404723e-01
1.57500000e+02	9.34145332e-01
1.58500000e+02	9.33884050e-01
1.59500000e+02	9.33620867e-01
1.60500000e+02	9.33355775e-01
1.61500000e+02	9.33088762e-01
1.62500000e+02	9.32819820e-01
1.63500000e+02	9.32548937e-01
1.64500000e+02	9.32276103e-01
1.65500000e+02	9.32001307e-01
1.66500000e+02	9.31724539e-01
1.67500000e+02	9.31445787e-01
1.68500000e+02	9.31165040e-01
1.69500000e+02	9.30882286e-01
1.70500000e+02	9.30597513e-01
1.71500000e+02	9.30310710e-01
1.72500000e+02	9.30021865e-01
1.73500000e+02	9.29730964e-01
1.74500000e+02	9.29437995e-01
1.75500000e+02	9.29142945e-01
1.76500000e+02	9.28845801e-01
1.77500000e+02	9.28546550e-01
1.78500000e+02	9.28245179e-01
1.79500000e+02	9.27941672e-01
1.80500000e+02	9.27636018e-01
1.81500000e+02	9.27328200e-01
1.82500000e+02	9.27018205e-01
1.83500000e+02	9.26706018e-01
1.84500000e+02	9.26391624e-01
1.85500000e+02	9.26075008e-01
1.86500000e+02	9.25756154e-01
1.87500000e+02	9.25435047e-01
1.88500000e+02	9.25111672e-01
1.89500000e+02	9.24786011e-01
1.90500000e+02	9.24458049e-01
1.91500000e+02	9.24127768e-01
1.92500000e+02	9.23795153e-01
1.93500000e+02	9.23460186e-01
1.94500000e+02	9.23122850e-01
1.95500000e+02	9.22783127e-01
1.96500000e+02	9.22441000e-01
1.97500000e+02	9.22096450e-01
1.98500000e+02	9.21749459e-01
1.99500000e+02	9.21400009e-01
2.00500000e+02	9.21048081e-01
2.01500000e+02	9.20693656e-01
2.02500000e+02	9.20336715e-01
2.03500000e+02	9.19977237e-01
2.04500000e+02	9.19615205e-01
2.05500000e+02	9.19250596e-01
2.06500000e+02	9.18883392e-01
2.07500000e+02	9.18513571e-01
2.08500000e+02	9.18141113e-01
2.09500000e+02	9.17765998e-01
2.10500000e+02	9.17388202e-01
2.11500000e+02	9.17007706e-01
2.12500000e+02	9.16624488e-01
2.13500000e+02	9.16238524e-01
2.14500000e+02	9.15849794e-01
2.15500000e+02	9.15458274e-01
2.16500000e+02	9.15063941e-01
2.17500000e+02	9.14666773e-01
2.18500000e+02	9.14266747e-01
2.19500000e+02	9.13863838e-01
2.20500000e+02	9.13458022e-01
2.21500000e+02	9.13049277e-01
2.22500000e+02	9.12637576e-01
2.23500000e+02	9.12222896e-01
2.24500000e+02	9.11805212e-01
2.25500000e+02	9.11384498e-01
2.26500000e+02	9.10960729e-01
2.27500000e+02	9.10533880e-01
2.28500000e+02	9.10103923e-01
2.29500000e+02	9.09670833e-01
2.30500000e+02	9.09234584e-01
2.31500000e+02	9.08795148e-01
2.32500000e+02	9.08352498e-01
2.33500000e+02	9.07906607e-01
2.34500000e+02	9.07457447e-01
2.35500000e+02	9.07004991e-01
2.36500000e+02	9.06549209e-01
2.37500000e+02	9.06090074e-01
2.38500000e+02	9.05627556e-01
2.39500000e+02	9.05161626e-01
2.40500000e+02	9.04692255e-01
2.41500000e+02	9.04219414e-01
2.42500000e+02	9.03743071e-01
2.43500000e+02	9.03263197e-01
2.44500000e+02	9.02779762e-01
2.45500000e+02	9.02292733e-01
2.46500000e+02	9.01802081e-01
2.47500000e+02	9.01307773e-01
2.48500000e+02	9.00809777e-01
2.49500000e+02	9.00308062e-01
2.50500000e+02	8.99802595e-01
2.51500000e+02	8.99293342e-01
2.52500000e+02	8.98780272e-01
2.53500000e+02	8.98263350e-01
2.54500000e+02	8.97742542e-01
2.55500000e+02	8.97217815e-01
2.56500000e+02	8.96689134e-01
2.57500000e+02	8.96156465e-01
2.58500000e+02	8.95619771e-01
2.59500000e+02	8.95079018e-01
2.60500000e+02	8.94534170e-01
2.61500000e+02	8.93985191e-01
2.62500000e+02	8.93432044e-01
2.63500000e+02	8.92874693e-01
2.64500000e+02	8.92313100e-01
2.65500000e+02	8.91747227e-01
2.66500000e+02	8.91177037e-01
2.67500000e+02	8.90602492e-01
2.68500000e+02	8.90023552e-01
2.69500000e+02	8.89440179e-01
2.70500000e+02	8.88852333e-01
2.71500000e+02	8.88259975e-01
2.72500000e+02	8.87663065e-01
2.73500000e+02	8.87061561e-01
2.74500000e+02	8.86455423e-01
2.75500000e+02	8.85844609e-01
2.76500000e+02	8.85229079e-01
2.77500000e+02	8.84608789e-01
2.78500000e+02	8.83983698e-01
2.79500000e+02	8.83353761e-01
2.80500000e+02	8.82718937e-01
2.81500000e+02	8.82079181e-01
2.82500000e+02	8.81434449e-01
2.83500000e+02	8.80784696e-01
2.84500000e+02	8.80129878e-01
2.85500000e+02	8.79469948e-01
2.86500000e+02	8.78804862e-01
2.87500000e+02	8.78134573e-01
2.88500000e+02	8.77459034e-01
2.89500000e+02	8.76778197e-01
2.90500000e+02	8.76092017e-01
2.91500000e+02	8.75400443e-01
2.92500000e+02	8.74703428e-01
2.93500000e+02	8.74000923e-01
2.94500000e+02	8.73292878e-01
2.95500000e+02	8.72579244e-01
2.96500000e+02	8.71859970e-01
2.97500000e+02	8.71135005e-01
2.98500000e+02	8.70404298e-01
2.99500000e+02	8.69667798e-01
3.00500000e+02	8.68925452e-01
3.01500000e+02	8.68177207e-01
3.02500000e+02	8.67423010e-01
3.03500000e+02	8.66662809e-01
3.04500000e+02	8.65896547e-01
3.05500000e+02	8.65124172e-01
3.06500000e+02	8.64345628e-01
3.07500000e+02	8.63560859e-01
3.08500000e+02	8.62769809e-01
3.09500000e+02	8.61972422e-01
3.10500000e+02	8.61168640e-01
3.11500000e+02	8.60358407e-01
3.12500000e+02	8.59541664e-01
3.13500000e+02	8.58718352e-01
3.14500000e+02	8.57888413e-01
3.15500000e+02	8.57051787e-01
3.16500000e+02	8.56208414e-01
3.17500000e+02	8.55358234e-01
3.18500000e+02	8.54501186e-01
3.19500000e+02	8.53637208e-01
3.20500000e+02	8.52766238e-01
3.21500000e+02	8.51888214e-01
3.22500000e+02	8.51003073e-01
3.23500000e+02	8.50110752e-01
3.24500000e+02	8.49211186e-01
3.25500000e+02	8.48304311e-01
3.26500000e+02	8.47390063e-01
3.27500000e+02	8.46468376e-01
3.28500000e+02	8.45539185e-01
3.29500000e+02	8.44602422e-01
3.30500000e+02	8.43658022e-01
3.31500000e+02	8.42705916e-01
3.32500000e+02	8.41746039e-01
3.33500000e+02	8.40778320e-01
3.34500000e+02	8.39802693e-01
3.35500000e+02	8.38819088e-01
3.36500000e+02	8.37827435e-01
3.37500000e+02	8.36827664e-01
3.38500000e+02	8.35819707e-01
3.39500000e+02	8.34803491e-01
3.40500000e+02	8.33778945e-01
3.41500000e+02	8.32745999e-01
3.42500000e+02	8.31704581e-01
3.43500000e+02	8.30654617e-01
3.44500000e+02	8.29596037e-01
3.45500000e+02	8.28528766e-01
3.46500000e+02	8.27452731e-01
3.47500000e+02	8.26367860e-01
3.48500000e+02	8.25274077e-01
3.49500000e+02	8.24171309e-01
3.50500000e+02	8.23059481e-01
3.51500000e+02	8.21938518e-01
3.52500000e+02	8.20808346e-01
3.53500000e+02	8.19668888e-01
3.54500000e+02	8.18520070e-01
3.55500000e+02	8.17361815e-01
3.56500000e+02	8.16194048e-01
3.57500000e+02	8.15016692e-01
3.58500000e+02	8.13829671e-01
3.59500000e+02	8.12632908e-01
3.60500000e+02	8.11426327e-01
3.61500000e+02	8.10209851e-01
3.62500000e+02	8.08983403e-01
3.63500000e+02	8.07746907e-01
3.64500000e+02	8.06500284e-01
3.65500000e+02	8.05243459e-01
3.66500000e+02	8.03976353e-01
3.67500000e+02	8.02698891e-01
3.68500000e+02	8.01410995e-01
3.69500000e+02	8.00112587e-01
3.70500000e+02	7.98803593e-01
3.71500000e+02	7.97483933e-01
3.72500000e+02	7.96153533e-01
3.73500000e+02	7.94812315e-01
3.74500000e+02	7.93460204e-01
3.75500000e+02	7.92097123e-01
3.76500000e+02	7.90722997e-01
3.77500000e+02	7.89337749e-01
3.78500000e+02	7.87941306e-01
3.79500000e+02	7.86533592e-01
3.80500000e+02	7.85114533e-01
3.81500000e+02	7.83684054e-01
3.82500000e+02	7.82242083e-01
3.83500000e+02	7.80788546e-01
3.84500000e+02	7.79323370e-01
3.85500000e+02	7.77846483e-01
3.86500000e+02	7.76357815e-01
3.87500000e+02	7.74857293e-01
3.88500000e+02	7.73344848e-01
3.89500000e+02	7.71820410e-01
3.90500000e+02	7.70283911e-01
3.91500000e+02	7.68735282e-01
3.92500000e+02	7.67174456e-01
3.93500000e+02	7.65601366e-01
3.94500000e+02	7.64015948e-01
3.95500000e+02	7.62418135e-01
3.96500000e+02	7.60807866e-01
3.97500000e+02	7.59185076e-01
3.98500000e+02	7.57549704e-01
3.99500000e+02	7.55901690e-01
4.00500000e+02	7.54240974e-01
4.01500000e+02	7.52567498e-01
4.02500000e+02	7.50881204e-01
4.03500000e+02	7.49182036e-01
4.04500000e+02	7.47469940e-01
4.05500000e+02	7.45744862e-01
4.06500000e+02	7.44006750e-01
4.07500000e+02	7.42255554e-01
4.08500000e+02	7.40491224e-01
4.09500000e+02	7.38713712e-01
4.10500000e+02	7.36922972e-01
4.11500000e+02	7.35118960e-01
4.12500000e+02	7.33301632e-01
4.13500000e+02	7.31470946e-01
4.14500000e+02	7.29626863e-01
4.15500000e+02	7.27769344e-01
4.16500000e+02	7.25898353e-01
4.17500000e+02	7.24013854e-01
4.18500000e+02	7.22115816e-01
4.19500000e+02	7.20204207e-01
4.20500000e+02	7.18278997e-01
4.21500000e+02	7.16340160e-01
4.22500000e+02	7.14387669e-01
4.23500000e+02	7.12421501e-01
4.24500000e+02	7.10441636e-01
4.25500000e+02	7.08448052e-01
4.26500000e+02	7.06440733e-01
4.27500000e+02	7.04419664e-01
4.28500000e+02	7.02384831e-01
4.29500000e+02	7.00336222e-01
4.30500000e+02	6.98273830e-01
4.31500000e+02	6.96197647e-01
4.32500000e+02	6.94107669e-01
4.33500000e+02	6.92003893e-01
4.34500000e+02	6.89886319e-01
4.35500000e+02	6.87754949e-01
4.36500000e+02	6.85609788e-01
4.37500000e+02	6.83450843e-01
4.38500000e+02	6.81278122e-01
4.39500000e+02	6.79091638e-01
4.40500000e+02	6.76891403e-01
4.41500000e+02	6.74677435e-01
4.42500000e+02	6.72449751e-01
4.43500000e+02	6.70208373e-01
4.44500000e+02	6.67953324e-01
4.45500000e+02	6.65684630e-01
4.46500000e+02	6.63402320e-01
4.47500000e+02	6.61106424e-01
4.48500000e+02	6.58796976e-01
4.49500000e+02	6.56474012e-01
4.50500000e+02	6.54137570e-01
4.51500000e+02	6.51787691e-01
4.52500000e+02	6.49424419e-01
4.53500000e+02	6.47047800e-01
4.54500000e+02	6.44657883e-01
4.55500000e+02	6.42254719e-01
4.56500000e+02	6.39838362e-01
4.57500000e+02	6.37408870e-01
4.58500000e+02	6.34966302e-01
4.59500000e+02	6.32510719e-01
4.60500000e+02	6.30042189e-01
4.61500000e+02	6.27560778e-01
4.62500000e+02	6.25066557e-01
4.63500000e+02	6.22559600e-01
4.64500000e+02	6.20039984e-01
4.65500000e+02	6.17507789e-01
4.66500000e+02	6.14963097e-01
4.67500000e+02	6.12405995e-01
4.68500000e+02	6.09836572e-01
4.69500000e+02	6.07254920e-01
4.70500000e+02	6.04661135e-01
4.71500000e+02	6.02055316e-01
4.72500000e+02	5.99437566e-01
4.73500000e+02	5.96807993e-01
4.74500000e+02	5.94166704e-01
4.75500000e+02	5.91513815e-01
4.76500000e+02	5.88849444e-01
4.77500000e+02	5.86173712e-01
4.78500000e+02	5.83486744e-01
4.79500000e+02	5.80788673e-01
4.80500000e+02	5.78079631e-01
4.81500000e+02	5.75359759e-01
4.82500000e+02	5.72629200e-01
4.83500000e+02	5.69888104e-01
4.84500000e+02	5.67136624e-01
4.85500000e+02	5.64374919e-01
4.86500000e+02	5.61603153e-01
4.87500000e+02	5.58821498e-01
4.88500000e+02	5.56030129e-01
4.89500000e+02	5.53229227e-01
4.90500000e+02	5.50418980e-01
4.91500000e+02	5.47599584e-01
4.92500000e+02	5.44771239e-01
4.93500000e+02	5.41934152e-01
4.94500000e+02	5.39088540e-01
4.95500000e+02	5.36234623e-01
4.96500000e+02	5.33372632e-01
4.97500000e+02	5.30502804e-01
4.98500000e+02	5.27625385e-01
4.99500000e+02	5.24740629e-01
5.00500000e+02	5.21848797e-01
5.01500000e+02	5.18950161e-01
5.02500000e+02	5.16045002e-01
5.03500000e+02	5.13133607e-01
5.04500000e+02	5.10216276e-01
5.05500000e+02	5.07293318e-01
5.06500000e+02	5.04365051e-01
5.07500000e+02	5.01431804e-01
5.08500000e+02	4.98493915e-01
5.09500000e+02	4.95551735e-01
5.10500000e+02	4.92605623e-01
5.11500000e+02	4.89655952e-01
5.12500000e+02	4.86703104e-01
5.13500000e+02	4.83747473e-01
5.14500000e+02	4.80789465e-01
5.15500000e+02	4.77829496e-01
5.16500000e+02	4.74867996e-01
5.17500000e+02	4.71905404e-01
5.18500000e+02	4.68942174e-01
5.19500000e+02	4.65978769e-01
5.20500000e+02	4.63015666e-01
5.21500000e+02	4.60053352e-01
5.22500000e+02	4.57092327e-01
5.23500000e+02	4.54133103e-01
5.24500000e+02	4.51176201e-01
5.25500000e+02	4.48222157e-01
5.26500000e+02	4.45271515e-01
5.27500000e+02	4.42324831e-01
5.28500000e+02	4.39382672e-01
5.29500000e+02	4.36445615e-01
5.30500000e+02	4.33514247e-01
5.31500000e+02	4.30589162e-01
5.32500000e+02	4.27670967e-01
5.33500000e+02	4.24760274e-01
5.34500000e+02	4.21857705e-01
5.35500000e+02	4.18963887e-01
5.36500000e+02	4.16079455e-01
5.37500000e+02	4.13205049e-01
5.38500000e+02	4.10341314e-01
5.39500000e+02	4.07488900e-01
5.40500000e+02	4.04648459e-01
5.41500000e+02	4.01820646e-01
5.42500000e+02	3.99006117e-01
5.43500000e+02	3.96205528e-01
5.44500000e+02	3.93419537e-01
5.45500000e+02	3.90648796e-01
5.46500000e+02	3.87893957e-01
5.47500000e+02	3.85155668e-01
5.48500000e+02	3.82434571e-01
5.49500000e+02	3.79731302e-01
5.50500000e+02	3.77046490e-01
5.51500000e+02	3.74380755e-01
5.52500000e+02	3.71734709e-01
5.53500000e+02	3.69108950e-01
5.54500000e+02	3.66504066e-01
5.55500000e+02	3.63920633e-01
5.56500000e+02	3.61359210e-01
5.57500000e+02	3.58820342e-01
5.58500000e+02	3.56304559e-01
5.59500000e+02	3.53812370e-01
5.60500000e+02	3.51344270e-01
5.61500000e+02	3.48900731e-01
5.62500000e+02	3.46482207e-01
5.63500000e+02	3.44089130e-01
5.64500000e+02	3.41721912e-01
5.65500000e+02	3.39380941e-01
5.66500000e+02	3.37066581e-01
5.67500000e+02	3.34779176e-01
5.68500000e+02	3.32519043e-01
5.69500000e+02	3.30286475e-01
5.70500000e+02	3.28081742e-01
5.71500000e+02	3.25905089e-01
5.72500000e+02	3.23756733e-01
5.73500000e+02	3.21636870e-01
5.74500000e+02	3.19545669e-01
5.75500000e+02	3.17483273e-01
5.76500000e+02	3.15449802e-01
5.77500000e+02	3.13445351e-01
5.78500000e+02	3.11469990e-01
5.79500000e+02	3.09523767e-01
5.80500000e+02	3.07606703e-01
5.81500000e+02	3.05718801e-01
5.82500000e+02	3.03860037e-01
5.83500000e+02	3.02030368e-01
5.84500000e+02	3.00229728e-01
5.85500000e+02	2.98458033e-01
5.86500000e+02	2.96715177e-01
5.87500000e+02	2.95001035e-01
5.88500000e+02	2.93315466e-01
5.89500000e+02	2.91658310e-01
5.90500000e+02	2.90029390e-01
5.91500000e+02	2.88428514e-01
5.92500000e+02	2.86855476e-01
5.93500000e+02	2.85310054e-01
5.94500000e+02	2.83792015e-01
5.95500000e+02	2.82301113e-01
5.96500000e+02	2.80837089e-01
5.97500000e+02	2.79399677e-01
5.98500000e+02	2.77988598e-01
5.99500000e+02	2.76603564e-01
6.00500000e+02	2.75244283e-01
6.01500000e+02	2.73910451e-01
6.02500000e+02	2.72601761e-01
6.03500000e+02	2.71317897e-01
6.04500000e+02	2.70058541e-01
6.05500000e+02	2.68823370e-01
6.06500000e+02	2.67612056e-01
6.07500000e+02	2.66424270e-01
6.08500000e+02	2.65259679e-01
6.09500000e+02	2.64117948e-01
6.10500000e+02	2.62998744e-01
6.11500000e+02	2.61901729e-01
6.12500000e+02	2.60826569e-01
6.13500000e+02	2.59772928e-01
6.14500000e+02	2.58740471e-01
6.15500000e+02	2.57728865e-01
6.16500000e+02	2.56737778e-01
6.17500000e+02	2.55766881e-01
6.18500000e+02	2.54815848e-01
6.19500000e+02	2.53884353e-01
6.20500000e+02	2.52972076e-01
6.21500000e+02	2.52078699e-01
6.22500000e+02	2.51203908e-01
6.23500000e+02	2.50347392e-01
6.24500000e+02	2.49508847e-01
6.25500000e+02	2.48687969e-01
6.26500000e+02	2.47884461e-01
6.27500000e+02	2.47098032e-01
6.28500000e+02	2.46328392e-01
6.29500000e+02	2.45575259e-01
6.30500000e+02	2.44838355e-01
6.31500000e+02	2.44117407e-01
6.32500000e+02	2.43412147e-01
6.33500000e+02	2.42722314e-01
6.34500000e+02	2.42047650e-01
6.35500000e+02	2.41387903e-01
6.36500000e+02	2.40742827e-01
6.37500000e+02	2.40112182e-01
6.38500000e+02	2.39495732e-01
6.39500000e+02	2.38893247e-01
6.40500000e+02	2.38304503e-01
6.41500000e+02	2.37729280e-01
6.42500000e+02	2.37167365e-01
6.43500000e+02	2.36618551e-01
6.44500000e+02	2.36082633e-01
6.45500000e+02	2.35559415e-01
6.46500000e+02	2.35048705e-01
6.47500000e+02	2.34550315e-01
6.48500000e+02	2.34064064e-01
6.49500000e+02	2.33589774e-01
6.50500000e+02	2.33127276e-01
6.51500000e+02	2.32676401e-01
6.52500000e+02	2.32236989e-01
6.53500000e+02	2.31808883e-01
6.54500000e+02	2.31391931e-01
6.55500000e+02	2.30985986e-01
6.56500000e+02	2.30590905e-01
6.57500000e+02	2.30206552e-01
6.58500000e+02	2.29832792e-01
6.59500000e+02	2.29469497e-01
6.60500000e+02	2.29116543e-01
