# Profil de Te au temps 3.000000000000013e-12 
# simu : /Volumes/MERCURE/JOBS/Zeq1_tanh_50mic_7p5e19_B0_20ps/GNU/Te@y-c.set
# col 0 : abscisse (um)
# col 1 : Te (keV)
5.00000000e-01	9.99999897e-01
1.50000000e+00	9.99999893e-01
2.50000000e+00	9.99999895e-01
3.50000000e+00	9.99999897e-01
4.50000000e+00	9.99999897e-01
5.50000000e+00	9.99999896e-01
6.50000000e+00	9.99999895e-01
7.50000000e+00	9.99999893e-01
8.50000000e+00	9.99999891e-01
9.50000000e+00	9.99999889e-01
1.05000000e+01	9.99999887e-01
1.15000000e+01	9.99999884e-01
1.25000000e+01	9.99999882e-01
1.35000000e+01	9.99999879e-01
1.45000000e+01	9.99999876e-01
1.55000000e+01	9.99999872e-01
1.65000000e+01	9.99999869e-01
1.75000000e+01	9.99999865e-01
1.85000000e+01	9.99999861e-01
1.95000000e+01	9.99999857e-01
2.05000000e+01	9.99999852e-01
2.15000000e+01	9.99999848e-01
2.25000000e+01	9.99999843e-01
2.35000000e+01	9.99999838e-01
2.45000000e+01	9.99999832e-01
2.55000000e+01	9.99999826e-01
2.65000000e+01	9.99999820e-01
2.75000000e+01	9.99999814e-01
2.85000000e+01	9.99999807e-01
2.95000000e+01	9.99999800e-01
3.05000000e+01	9.99999792e-01
3.15000000e+01	9.99999784e-01
3.25000000e+01	9.99999776e-01
3.35000000e+01	9.99999768e-01
3.45000000e+01	9.99999759e-01
3.55000000e+01	9.99999750e-01
3.65000000e+01	9.99999740e-01
3.75000000e+01	9.99999730e-01
3.85000000e+01	9.99999719e-01
3.95000000e+01	9.99999708e-01
4.05000000e+01	9.99999697e-01
4.15000000e+01	9.99999685e-01
4.25000000e+01	9.99999673e-01
4.35000000e+01	9.99999660e-01
4.45000000e+01	9.99999647e-01
4.55000000e+01	9.99999633e-01
4.65000000e+01	9.99999618e-01
4.75000000e+01	9.99999603e-01
4.85000000e+01	9.99999587e-01
4.95000000e+01	9.99999570e-01
5.05000000e+01	9.99999553e-01
5.15000000e+01	9.99999535e-01
5.25000000e+01	9.99999517e-01
5.35000000e+01	9.99999497e-01
5.45000000e+01	9.99999477e-01
5.55000000e+01	9.99999456e-01
5.65000000e+01	9.99999434e-01
5.75000000e+01	9.99999411e-01
5.85000000e+01	9.99999387e-01
5.95000000e+01	9.99999363e-01
6.05000000e+01	9.99999337e-01
6.15000000e+01	9.99999310e-01
6.25000000e+01	9.99999282e-01
6.35000000e+01	9.99999253e-01
6.45000000e+01	9.99999223e-01
6.55000000e+01	9.99999192e-01
6.65000000e+01	9.99999159e-01
6.75000000e+01	9.99999125e-01
6.85000000e+01	9.99999089e-01
6.95000000e+01	9.99999052e-01
7.05000000e+01	9.99999014e-01
7.15000000e+01	9.99998974e-01
7.25000000e+01	9.99998932e-01
7.35000000e+01	9.99998889e-01
7.45000000e+01	9.99998844e-01
7.55000000e+01	9.99998797e-01
7.65000000e+01	9.99998748e-01
7.75000000e+01	9.99998697e-01
7.85000000e+01	9.99998644e-01
7.95000000e+01	9.99998589e-01
8.05000000e+01	9.99998531e-01
8.15000000e+01	9.99998471e-01
8.25000000e+01	9.99998409e-01
8.35000000e+01	9.99998344e-01
8.45000000e+01	9.99998277e-01
8.55000000e+01	9.99998206e-01
8.65000000e+01	9.99998133e-01
8.75000000e+01	9.99998057e-01
8.85000000e+01	9.99997978e-01
8.95000000e+01	9.99997895e-01
9.05000000e+01	9.99997810e-01
9.15000000e+01	9.99997720e-01
9.25000000e+01	9.99997627e-01
9.35000000e+01	9.99997531e-01
9.45000000e+01	9.99997430e-01
9.55000000e+01	9.99997325e-01
9.65000000e+01	9.99997216e-01
9.75000000e+01	9.99997102e-01
9.85000000e+01	9.99996984e-01
9.95000000e+01	9.99996861e-01
1.00500000e+02	9.99996733e-01
1.01500000e+02	9.99996600e-01
1.02500000e+02	9.99996461e-01
1.03500000e+02	9.99996317e-01
1.04500000e+02	9.99996166e-01
1.05500000e+02	9.99996010e-01
1.06500000e+02	9.99995847e-01
1.07500000e+02	9.99995678e-01
1.08500000e+02	9.99995501e-01
1.09500000e+02	9.99995318e-01
1.10500000e+02	9.99995127e-01
1.11500000e+02	9.99994928e-01
1.12500000e+02	9.99994721e-01
1.13500000e+02	9.99994506e-01
1.14500000e+02	9.99994282e-01
1.15500000e+02	9.99994048e-01
1.16500000e+02	9.99993805e-01
1.17500000e+02	9.99993553e-01
1.18500000e+02	9.99993290e-01
1.19500000e+02	9.99993016e-01
1.20500000e+02	9.99992731e-01
1.21500000e+02	9.99992434e-01
1.22500000e+02	9.99992126e-01
1.23500000e+02	9.99991804e-01
1.24500000e+02	9.99991470e-01
1.25500000e+02	9.99991122e-01
1.26500000e+02	9.99990760e-01
1.27500000e+02	9.99990383e-01
1.28500000e+02	9.99989990e-01
1.29500000e+02	9.99989582e-01
1.30500000e+02	9.99989157e-01
1.31500000e+02	9.99988714e-01
1.32500000e+02	9.99988254e-01
1.33500000e+02	9.99987774e-01
1.34500000e+02	9.99987276e-01
1.35500000e+02	9.99986757e-01
1.36500000e+02	9.99986216e-01
1.37500000e+02	9.99985654e-01
1.38500000e+02	9.99985069e-01
1.39500000e+02	9.99984459e-01
1.40500000e+02	9.99983825e-01
1.41500000e+02	9.99983165e-01
1.42500000e+02	9.99982479e-01
1.43500000e+02	9.99981764e-01
1.44500000e+02	9.99981020e-01
1.45500000e+02	9.99980245e-01
1.46500000e+02	9.99979440e-01
1.47500000e+02	9.99978601e-01
1.48500000e+02	9.99977728e-01
1.49500000e+02	9.99976819e-01
1.50500000e+02	9.99975874e-01
1.51500000e+02	9.99974889e-01
1.52500000e+02	9.99973865e-01
1.53500000e+02	9.99972799e-01
1.54500000e+02	9.99971689e-01
1.55500000e+02	9.99970535e-01
1.56500000e+02	9.99969333e-01
1.57500000e+02	9.99968082e-01
1.58500000e+02	9.99966780e-01
1.59500000e+02	9.99965425e-01
1.60500000e+02	9.99964015e-01
1.61500000e+02	9.99962547e-01
1.62500000e+02	9.99961020e-01
1.63500000e+02	9.99959430e-01
1.64500000e+02	9.99957775e-01
1.65500000e+02	9.99956053e-01
1.66500000e+02	9.99954261e-01
1.67500000e+02	9.99952396e-01
1.68500000e+02	9.99950455e-01
1.69500000e+02	9.99948435e-01
1.70500000e+02	9.99946332e-01
1.71500000e+02	9.99944144e-01
1.72500000e+02	9.99941866e-01
1.73500000e+02	9.99939496e-01
1.74500000e+02	9.99937029e-01
1.75500000e+02	9.99934462e-01
1.76500000e+02	9.99931791e-01
1.77500000e+02	9.99929010e-01
1.78500000e+02	9.99926116e-01
1.79500000e+02	9.99923105e-01
1.80500000e+02	9.99919971e-01
1.81500000e+02	9.99916709e-01
1.82500000e+02	9.99913314e-01
1.83500000e+02	9.99909782e-01
1.84500000e+02	9.99906106e-01
1.85500000e+02	9.99902280e-01
1.86500000e+02	9.99898298e-01
1.87500000e+02	9.99894154e-01
1.88500000e+02	9.99889842e-01
1.89500000e+02	9.99885355e-01
1.90500000e+02	9.99880685e-01
1.91500000e+02	9.99875825e-01
1.92500000e+02	9.99870768e-01
1.93500000e+02	9.99865505e-01
1.94500000e+02	9.99860029e-01
1.95500000e+02	9.99854330e-01
1.96500000e+02	9.99848399e-01
1.97500000e+02	9.99842228e-01
1.98500000e+02	9.99835805e-01
1.99500000e+02	9.99829123e-01
2.00500000e+02	9.99822169e-01
2.01500000e+02	9.99814932e-01
2.02500000e+02	9.99807403e-01
2.03500000e+02	9.99799567e-01
2.04500000e+02	9.99791415e-01
2.05500000e+02	9.99782931e-01
2.06500000e+02	9.99774104e-01
2.07500000e+02	9.99764919e-01
2.08500000e+02	9.99755362e-01
2.09500000e+02	9.99745418e-01
2.10500000e+02	9.99735072e-01
2.11500000e+02	9.99724307e-01
2.12500000e+02	9.99713106e-01
2.13500000e+02	9.99701452e-01
2.14500000e+02	9.99689328e-01
2.15500000e+02	9.99676713e-01
2.16500000e+02	9.99663589e-01
2.17500000e+02	9.99649935e-01
2.18500000e+02	9.99635729e-01
2.19500000e+02	9.99620951e-01
2.20500000e+02	9.99605576e-01
2.21500000e+02	9.99589582e-01
2.22500000e+02	9.99572944e-01
2.23500000e+02	9.99555635e-01
2.24500000e+02	9.99537630e-01
2.25500000e+02	9.99518901e-01
2.26500000e+02	9.99499419e-01
2.27500000e+02	9.99479154e-01
2.28500000e+02	9.99458075e-01
2.29500000e+02	9.99436150e-01
2.30500000e+02	9.99413346e-01
2.31500000e+02	9.99389629e-01
2.32500000e+02	9.99364961e-01
2.33500000e+02	9.99339306e-01
2.34500000e+02	9.99312625e-01
2.35500000e+02	9.99284878e-01
2.36500000e+02	9.99256023e-01
2.37500000e+02	9.99226017e-01
2.38500000e+02	9.99194815e-01
2.39500000e+02	9.99162371e-01
2.40500000e+02	9.99128635e-01
2.41500000e+02	9.99093558e-01
2.42500000e+02	9.99057089e-01
2.43500000e+02	9.99019173e-01
2.44500000e+02	9.98979754e-01
2.45500000e+02	9.98938774e-01
2.46500000e+02	9.98896175e-01
2.47500000e+02	9.98851893e-01
2.48500000e+02	9.98805864e-01
2.49500000e+02	9.98758021e-01
2.50500000e+02	9.98708296e-01
2.51500000e+02	9.98656617e-01
2.52500000e+02	9.98602910e-01
2.53500000e+02	9.98547098e-01
2.54500000e+02	9.98489102e-01
2.55500000e+02	9.98428841e-01
2.56500000e+02	9.98366228e-01
2.57500000e+02	9.98301176e-01
2.58500000e+02	9.98233596e-01
2.59500000e+02	9.98163391e-01
2.60500000e+02	9.98090466e-01
2.61500000e+02	9.98014721e-01
2.62500000e+02	9.97936050e-01
2.63500000e+02	9.97854349e-01
2.64500000e+02	9.97769504e-01
2.65500000e+02	9.97681404e-01
2.66500000e+02	9.97589929e-01
2.67500000e+02	9.97494958e-01
2.68500000e+02	9.97396365e-01
2.69500000e+02	9.97294020e-01
2.70500000e+02	9.97187791e-01
2.71500000e+02	9.97077539e-01
2.72500000e+02	9.96963121e-01
2.73500000e+02	9.96844393e-01
2.74500000e+02	9.96721202e-01
2.75500000e+02	9.96593395e-01
2.76500000e+02	9.96460809e-01
2.77500000e+02	9.96323282e-01
2.78500000e+02	9.96180643e-01
2.79500000e+02	9.96032719e-01
2.80500000e+02	9.95879329e-01
2.81500000e+02	9.95720291e-01
2.82500000e+02	9.95555414e-01
2.83500000e+02	9.95384504e-01
2.84500000e+02	9.95207361e-01
2.85500000e+02	9.95023780e-01
2.86500000e+02	9.94833550e-01
2.87500000e+02	9.94636456e-01
2.88500000e+02	9.94432276e-01
2.89500000e+02	9.94220782e-01
2.90500000e+02	9.94001742e-01
2.91500000e+02	9.93774919e-01
2.92500000e+02	9.93540066e-01
2.93500000e+02	9.93296935e-01
2.94500000e+02	9.93045269e-01
2.95500000e+02	9.92784808e-01
2.96500000e+02	9.92515283e-01
2.97500000e+02	9.92236421e-01
2.98500000e+02	9.91947943e-01
2.99500000e+02	9.91649564e-01
3.00500000e+02	9.91340992e-01
3.01500000e+02	9.91021931e-01
3.02500000e+02	9.90692078e-01
3.03500000e+02	9.90351123e-01
3.04500000e+02	9.89998753e-01
3.05500000e+02	9.89634647e-01
3.06500000e+02	9.89258479e-01
3.07500000e+02	9.88869917e-01
3.08500000e+02	9.88468623e-01
3.09500000e+02	9.88054254e-01
3.10500000e+02	9.87626462e-01
3.11500000e+02	9.87184893e-01
3.12500000e+02	9.86729186e-01
3.13500000e+02	9.86258977e-01
3.14500000e+02	9.85773897e-01
3.15500000e+02	9.85273569e-01
3.16500000e+02	9.84757616e-01
3.17500000e+02	9.84225651e-01
3.18500000e+02	9.83677285e-01
3.19500000e+02	9.83112125e-01
3.20500000e+02	9.82529772e-01
3.21500000e+02	9.81929825e-01
3.22500000e+02	9.81311875e-01
3.23500000e+02	9.80675513e-01
3.24500000e+02	9.80020325e-01
3.25500000e+02	9.79345894e-01
3.26500000e+02	9.78651797e-01
3.27500000e+02	9.77937612e-01
3.28500000e+02	9.77202911e-01
3.29500000e+02	9.76447265e-01
3.30500000e+02	9.75670240e-01
3.31500000e+02	9.74871403e-01
3.32500000e+02	9.74050316e-01
3.33500000e+02	9.73206542e-01
3.34500000e+02	9.72339639e-01
3.35500000e+02	9.71449167e-01
3.36500000e+02	9.70534682e-01
3.37500000e+02	9.69595740e-01
3.38500000e+02	9.68631897e-01
3.39500000e+02	9.67642708e-01
3.40500000e+02	9.66627727e-01
3.41500000e+02	9.65586507e-01
3.42500000e+02	9.64518605e-01
3.43500000e+02	9.63423575e-01
3.44500000e+02	9.62300972e-01
3.45500000e+02	9.61150352e-01
3.46500000e+02	9.59971273e-01
3.47500000e+02	9.58763293e-01
3.48500000e+02	9.57525972e-01
3.49500000e+02	9.56258872e-01
3.50500000e+02	9.54961555e-01
3.51500000e+02	9.53633586e-01
3.52500000e+02	9.52274534e-01
3.53500000e+02	9.50883967e-01
3.54500000e+02	9.49461458e-01
3.55500000e+02	9.48006581e-01
3.56500000e+02	9.46518913e-01
3.57500000e+02	9.44998035e-01
3.58500000e+02	9.43443530e-01
3.59500000e+02	9.41854985e-01
3.60500000e+02	9.40231989e-01
3.61500000e+02	9.38574135e-01
3.62500000e+02	9.36881020e-01
3.63500000e+02	9.35152242e-01
3.64500000e+02	9.33387407e-01
3.65500000e+02	9.31586120e-01
3.66500000e+02	9.29747992e-01
3.67500000e+02	9.27872638e-01
3.68500000e+02	9.25959676e-01
3.69500000e+02	9.24008727e-01
3.70500000e+02	9.22019417e-01
3.71500000e+02	9.19991376e-01
3.72500000e+02	9.17924235e-01
3.73500000e+02	9.15817633e-01
3.74500000e+02	9.13671209e-01
3.75500000e+02	9.11484607e-01
3.76500000e+02	9.09257474e-01
3.77500000e+02	9.06989463e-01
3.78500000e+02	9.04680227e-01
3.79500000e+02	9.02329425e-01
3.80500000e+02	8.99936718e-01
3.81500000e+02	8.97501770e-01
3.82500000e+02	8.95024250e-01
3.83500000e+02	8.92503829e-01
3.84500000e+02	8.89940180e-01
3.85500000e+02	8.87332982e-01
3.86500000e+02	8.84681913e-01
3.87500000e+02	8.81986658e-01
3.88500000e+02	8.79246901e-01
3.89500000e+02	8.76462330e-01
3.90500000e+02	8.73632638e-01
3.91500000e+02	8.70757517e-01
3.92500000e+02	8.67836664e-01
3.93500000e+02	8.64869776e-01
3.94500000e+02	8.61856555e-01
3.95500000e+02	8.58796705e-01
3.96500000e+02	8.55689931e-01
3.97500000e+02	8.52535941e-01
3.98500000e+02	8.49334446e-01
3.99500000e+02	8.46085158e-01
4.00500000e+02	8.42787795e-01
4.01500000e+02	8.39442072e-01
4.02500000e+02	8.36047712e-01
4.03500000e+02	8.32604438e-01
4.04500000e+02	8.29111976e-01
4.05500000e+02	8.25570056e-01
4.06500000e+02	8.21978412e-01
4.07500000e+02	8.18336779e-01
4.08500000e+02	8.14644898e-01
4.09500000e+02	8.10902514e-01
4.10500000e+02	8.07109376e-01
4.11500000e+02	8.03265238e-01
4.12500000e+02	7.99369859e-01
4.13500000e+02	7.95423004e-01
4.14500000e+02	7.91424445e-01
4.15500000e+02	7.87373962e-01
4.16500000e+02	7.83271338e-01
4.17500000e+02	7.79116370e-01
4.18500000e+02	7.74908861e-01
4.19500000e+02	7.70648623e-01
4.20500000e+02	7.66335481e-01
4.21500000e+02	7.61969271e-01
4.22500000e+02	7.57549841e-01
4.23500000e+02	7.53077053e-01
4.24500000e+02	7.48550784e-01
4.25500000e+02	7.43970927e-01
4.26500000e+02	7.39337394e-01
4.27500000e+02	7.34650112e-01
4.28500000e+02	7.29909032e-01
4.29500000e+02	7.25114125e-01
4.30500000e+02	7.20265386e-01
4.31500000e+02	7.15362832e-01
4.32500000e+02	7.10406512e-01
4.33500000e+02	7.05396498e-01
4.34500000e+02	7.00332896e-01
4.35500000e+02	6.95215841e-01
4.36500000e+02	6.90045506e-01
4.37500000e+02	6.84822098e-01
4.38500000e+02	6.79545861e-01
4.39500000e+02	6.74217081e-01
4.40500000e+02	6.68836088e-01
4.41500000e+02	6.63403254e-01
4.42500000e+02	6.57919000e-01
4.43500000e+02	6.52383797e-01
4.44500000e+02	6.46798165e-01
4.45500000e+02	6.41162682e-01
4.46500000e+02	6.35477981e-01
4.47500000e+02	6.29744752e-01
4.48500000e+02	6.23963750e-01
4.49500000e+02	6.18135792e-01
4.50500000e+02	6.12261762e-01
4.51500000e+02	6.06342611e-01
4.52500000e+02	6.00379364e-01
4.53500000e+02	5.94373118e-01
4.54500000e+02	5.88325046e-01
4.55500000e+02	5.82236398e-01
4.56500000e+02	5.76108507e-01
4.57500000e+02	5.69942787e-01
4.58500000e+02	5.63740737e-01
4.59500000e+02	5.57503944e-01
4.60500000e+02	5.51234081e-01
4.61500000e+02	5.44932916e-01
4.62500000e+02	5.38602306e-01
4.63500000e+02	5.32244203e-01
4.64500000e+02	5.25860655e-01
4.65500000e+02	5.19453806e-01
4.66500000e+02	5.13025898e-01
4.67500000e+02	5.06579272e-01
4.68500000e+02	5.00116366e-01
4.69500000e+02	4.93639720e-01
4.70500000e+02	4.87151970e-01
4.71500000e+02	4.80655852e-01
4.72500000e+02	4.74154198e-01
4.73500000e+02	4.67649936e-01
4.74500000e+02	4.61146089e-01
4.75500000e+02	4.54645770e-01
4.76500000e+02	4.48152179e-01
4.77500000e+02	4.41668602e-01
4.78500000e+02	4.35198403e-01
4.79500000e+02	4.28745023e-01
4.80500000e+02	4.22311971e-01
4.81500000e+02	4.15902816e-01
4.82500000e+02	4.09521187e-01
4.83500000e+02	4.03170757e-01
4.84500000e+02	3.96855241e-01
4.85500000e+02	3.90578382e-01
4.86500000e+02	3.84343946e-01
4.87500000e+02	3.78155708e-01
4.88500000e+02	3.72017444e-01
4.89500000e+02	3.65932921e-01
4.90500000e+02	3.59905882e-01
4.91500000e+02	3.53940037e-01
4.92500000e+02	3.48039054e-01
4.93500000e+02	3.42206542e-01
4.94500000e+02	3.36446045e-01
4.95500000e+02	3.30761027e-01
4.96500000e+02	3.25154861e-01
4.97500000e+02	3.19630822e-01
4.98500000e+02	3.14192069e-01
4.99500000e+02	3.08841644e-01
5.00500000e+02	3.03582456e-01
5.01500000e+02	2.98417271e-01
5.02500000e+02	2.93348708e-01
5.03500000e+02	2.88379227e-01
5.04500000e+02	2.83511123e-01
5.05500000e+02	2.78746517e-01
5.06500000e+02	2.74087350e-01
5.07500000e+02	2.69535378e-01
5.08500000e+02	2.65092163e-01
5.09500000e+02	2.60759072e-01
5.10500000e+02	2.56537269e-01
5.11500000e+02	2.52427712e-01
5.12500000e+02	2.48431151e-01
5.13500000e+02	2.44548122e-01
5.14500000e+02	2.40778948e-01
5.15500000e+02	2.37123735e-01
5.16500000e+02	2.33582372e-01
5.17500000e+02	2.30154534e-01
5.18500000e+02	2.26839678e-01
5.19500000e+02	2.23637051e-01
5.20500000e+02	2.20545686e-01
5.21500000e+02	2.17564416e-01
5.22500000e+02	2.14691871e-01
5.23500000e+02	2.11926489e-01
5.24500000e+02	2.09266524e-01
5.25500000e+02	2.06710054e-01
5.26500000e+02	2.04254994e-01
5.27500000e+02	2.01899106e-01
5.28500000e+02	1.99640014e-01
5.29500000e+02	1.97475214e-01
5.30500000e+02	1.95402095e-01
5.31500000e+02	1.93417949e-01
5.32500000e+02	1.91519991e-01
5.33500000e+02	1.89705373e-01
5.34500000e+02	1.87971201e-01
5.35500000e+02	1.86314552e-01
5.36500000e+02	1.84732491e-01
5.37500000e+02	1.83222083e-01
5.38500000e+02	1.81780410e-01
5.39500000e+02	1.80404586e-01
5.40500000e+02	1.79091767e-01
5.41500000e+02	1.77839163e-01
5.42500000e+02	1.76644048e-01
5.43500000e+02	1.75503770e-01
5.44500000e+02	1.74415758e-01
5.45500000e+02	1.73377526e-01
5.46500000e+02	1.72386680e-01
5.47500000e+02	1.71440920e-01
5.48500000e+02	1.70538041e-01
5.49500000e+02	1.69675938e-01
5.50500000e+02	1.68852602e-01
5.51500000e+02	1.68066119e-01
5.52500000e+02	1.67314673e-01
5.53500000e+02	1.66596537e-01
5.54500000e+02	1.65910077e-01
5.55500000e+02	1.65253744e-01
5.56500000e+02	1.64626071e-01
5.57500000e+02	1.64025673e-01
5.58500000e+02	1.63451237e-01
5.59500000e+02	1.62901524e-01
5.60500000e+02	1.62375362e-01
5.61500000e+02	1.61871644e-01
5.62500000e+02	1.61389321e-01
5.63500000e+02	1.60927401e-01
5.64500000e+02	1.60484947e-01
5.65500000e+02	1.60061071e-01
5.66500000e+02	1.59654929e-01
5.67500000e+02	1.59265725e-01
5.68500000e+02	1.58892702e-01
5.69500000e+02	1.58535141e-01
5.70500000e+02	1.58192360e-01
5.71500000e+02	1.57863712e-01
5.72500000e+02	1.57548581e-01
5.73500000e+02	1.57246380e-01
5.74500000e+02	1.56956551e-01
5.75500000e+02	1.56678564e-01
5.76500000e+02	1.56411912e-01
5.77500000e+02	1.56156114e-01
5.78500000e+02	1.55910709e-01
5.79500000e+02	1.55675258e-01
5.80500000e+02	1.55449343e-01
5.81500000e+02	1.55232564e-01
5.82500000e+02	1.55024540e-01
5.83500000e+02	1.54824905e-01
5.84500000e+02	1.54633311e-01
5.85500000e+02	1.54449425e-01
5.86500000e+02	1.54272928e-01
5.87500000e+02	1.54103516e-01
5.88500000e+02	1.53940898e-01
5.89500000e+02	1.53784794e-01
5.90500000e+02	1.53634938e-01
5.91500000e+02	1.53491075e-01
5.92500000e+02	1.53352959e-01
5.93500000e+02	1.53220357e-01
5.94500000e+02	1.53093045e-01
5.95500000e+02	1.52970807e-01
5.96500000e+02	1.52853439e-01
5.97500000e+02	1.52740743e-01
5.98500000e+02	1.52632530e-01
5.99500000e+02	1.52528619e-01
6.00500000e+02	1.52428838e-01
6.01500000e+02	1.52333018e-01
6.02500000e+02	1.52241002e-01
6.03500000e+02	1.52152637e-01
6.04500000e+02	1.52067775e-01
6.05500000e+02	1.51986277e-01
6.06500000e+02	1.51908007e-01
6.07500000e+02	1.51832836e-01
6.08500000e+02	1.51760641e-01
6.09500000e+02	1.51691303e-01
6.10500000e+02	1.51624707e-01
6.11500000e+02	1.51560744e-01
6.12500000e+02	1.51499310e-01
6.13500000e+02	1.51440303e-01
6.14500000e+02	1.51383626e-01
6.15500000e+02	1.51329188e-01
6.16500000e+02	1.51276898e-01
6.17500000e+02	1.51226673e-01
6.18500000e+02	1.51178429e-01
6.19500000e+02	1.51132088e-01
6.20500000e+02	1.51087574e-01
6.21500000e+02	1.51044816e-01
6.22500000e+02	1.51003743e-01
6.23500000e+02	1.50964289e-01
6.24500000e+02	1.50926389e-01
6.25500000e+02	1.50889982e-01
6.26500000e+02	1.50855009e-01
6.27500000e+02	1.50821414e-01
6.28500000e+02	1.50789141e-01
6.29500000e+02	1.50758139e-01
6.30500000e+02	1.50728356e-01
6.31500000e+02	1.50699746e-01
6.32500000e+02	1.50672262e-01
6.33500000e+02	1.50645859e-01
6.34500000e+02	1.50620495e-01
6.35500000e+02	1.50596128e-01
6.36500000e+02	1.50572719e-01
6.37500000e+02	1.50550231e-01
6.38500000e+02	1.50528628e-01
6.39500000e+02	1.50507873e-01
6.40500000e+02	1.50487935e-01
6.41500000e+02	1.50468780e-01
6.42500000e+02	1.50450378e-01
6.43500000e+02	1.50432699e-01
6.44500000e+02	1.50415715e-01
6.45500000e+02	1.50399398e-01
6.46500000e+02	1.50383722e-01
6.47500000e+02	1.50368662e-01
6.48500000e+02	1.50354194e-01
6.49500000e+02	1.50340294e-01
6.50500000e+02	1.50326940e-01
6.51500000e+02	1.50314111e-01
6.52500000e+02	1.50301786e-01
6.53500000e+02	1.50289945e-01
6.54500000e+02	1.50278569e-01
6.55500000e+02	1.50267641e-01
6.56500000e+02	1.50257142e-01
6.57500000e+02	1.50247057e-01
6.58500000e+02	1.50237369e-01
6.59500000e+02	1.50228063e-01
6.60500000e+02	1.50219125e-01
