# Profil de Te au temps 1.300000000000017e-11 
# simu : /Volumes/MERCURE/JOBS/Zeq1_tanh_50mic_7p5e19_B0_20ps/GNU/Te@y-c.set
# col 0 : abscisse (um)
# col 1 : Te (keV)
5.00000000e-01	9.95184549e-01
1.50000000e+00	9.95182641e-01
2.50000000e+00	9.95178852e-01
3.50000000e+00	9.95173167e-01
4.50000000e+00	9.95165581e-01
5.50000000e+00	9.95156096e-01
6.50000000e+00	9.95144712e-01
7.50000000e+00	9.95131430e-01
8.50000000e+00	9.95116247e-01
9.50000000e+00	9.95099163e-01
1.05000000e+01	9.95080176e-01
1.15000000e+01	9.95059286e-01
1.25000000e+01	9.95036490e-01
1.35000000e+01	9.95011788e-01
1.45000000e+01	9.94985178e-01
1.55000000e+01	9.94956658e-01
1.65000000e+01	9.94926226e-01
1.75000000e+01	9.94893880e-01
1.85000000e+01	9.94859617e-01
1.95000000e+01	9.94823436e-01
2.05000000e+01	9.94785335e-01
2.15000000e+01	9.94745310e-01
2.25000000e+01	9.94703359e-01
2.35000000e+01	9.94659479e-01
2.45000000e+01	9.94613668e-01
2.55000000e+01	9.94565923e-01
2.65000000e+01	9.94516239e-01
2.75000000e+01	9.94464616e-01
2.85000000e+01	9.94411048e-01
2.95000000e+01	9.94355533e-01
3.05000000e+01	9.94298066e-01
3.15000000e+01	9.94238646e-01
3.25000000e+01	9.94177267e-01
3.35000000e+01	9.94113927e-01
3.45000000e+01	9.94048620e-01
3.55000000e+01	9.93981344e-01
3.65000000e+01	9.93912094e-01
3.75000000e+01	9.93840867e-01
3.85000000e+01	9.93767657e-01
3.95000000e+01	9.93692461e-01
4.05000000e+01	9.93615274e-01
4.15000000e+01	9.93536091e-01
4.25000000e+01	9.93454909e-01
4.35000000e+01	9.93371723e-01
4.45000000e+01	9.93286528e-01
4.55000000e+01	9.93199318e-01
4.65000000e+01	9.93110091e-01
4.75000000e+01	9.93018840e-01
4.85000000e+01	9.92925560e-01
4.95000000e+01	9.92830248e-01
5.05000000e+01	9.92732897e-01
5.15000000e+01	9.92633503e-01
5.25000000e+01	9.92532060e-01
5.35000000e+01	9.92428564e-01
5.45000000e+01	9.92323008e-01
5.55000000e+01	9.92215389e-01
5.65000000e+01	9.92105700e-01
5.75000000e+01	9.91993937e-01
5.85000000e+01	9.91880094e-01
5.95000000e+01	9.91764165e-01
6.05000000e+01	9.91646145e-01
6.15000000e+01	9.91526030e-01
6.25000000e+01	9.91403812e-01
6.35000000e+01	9.91279488e-01
6.45000000e+01	9.91153051e-01
6.55000000e+01	9.91024496e-01
6.65000000e+01	9.90893818e-01
6.75000000e+01	9.90761011e-01
6.85000000e+01	9.90626069e-01
6.95000000e+01	9.90488987e-01
7.05000000e+01	9.90349761e-01
7.15000000e+01	9.90208383e-01
7.25000000e+01	9.90064849e-01
7.35000000e+01	9.89919153e-01
7.45000000e+01	9.89771290e-01
7.55000000e+01	9.89621255e-01
7.65000000e+01	9.89469041e-01
7.75000000e+01	9.89314645e-01
7.85000000e+01	9.89158059e-01
7.95000000e+01	9.88999280e-01
8.05000000e+01	9.88838302e-01
8.15000000e+01	9.88675119e-01
8.25000000e+01	9.88509727e-01
8.35000000e+01	9.88342119e-01
8.45000000e+01	9.88172292e-01
8.55000000e+01	9.88000240e-01
8.65000000e+01	9.87825958e-01
8.75000000e+01	9.87649441e-01
8.85000000e+01	9.87470684e-01
8.95000000e+01	9.87289683e-01
9.05000000e+01	9.87106431e-01
9.15000000e+01	9.86920926e-01
9.25000000e+01	9.86733162e-01
9.35000000e+01	9.86543134e-01
9.45000000e+01	9.86350838e-01
9.55000000e+01	9.86156269e-01
9.65000000e+01	9.85959423e-01
9.75000000e+01	9.85760296e-01
9.85000000e+01	9.85558883e-01
9.95000000e+01	9.85355180e-01
1.00500000e+02	9.85149183e-01
1.01500000e+02	9.84940889e-01
1.02500000e+02	9.84730292e-01
1.03500000e+02	9.84517389e-01
1.04500000e+02	9.84302177e-01
1.05500000e+02	9.84084651e-01
1.06500000e+02	9.83864808e-01
1.07500000e+02	9.83642645e-01
1.08500000e+02	9.83418157e-01
1.09500000e+02	9.83191342e-01
1.10500000e+02	9.82962197e-01
1.11500000e+02	9.82730718e-01
1.12500000e+02	9.82496901e-01
1.13500000e+02	9.82260745e-01
1.14500000e+02	9.82022246e-01
1.15500000e+02	9.81781402e-01
1.16500000e+02	9.81538209e-01
1.17500000e+02	9.81292665e-01
1.18500000e+02	9.81044768e-01
1.19500000e+02	9.80794515e-01
1.20500000e+02	9.80541904e-01
1.21500000e+02	9.80286933e-01
1.22500000e+02	9.80029598e-01
1.23500000e+02	9.79769900e-01
1.24500000e+02	9.79507835e-01
1.25500000e+02	9.79243402e-01
1.26500000e+02	9.78976598e-01
1.27500000e+02	9.78707423e-01
1.28500000e+02	9.78435875e-01
1.29500000e+02	9.78161953e-01
1.30500000e+02	9.77885654e-01
1.31500000e+02	9.77606979e-01
1.32500000e+02	9.77325925e-01
1.33500000e+02	9.77042491e-01
1.34500000e+02	9.76756678e-01
1.35500000e+02	9.76468483e-01
1.36500000e+02	9.76177906e-01
1.37500000e+02	9.75884947e-01
1.38500000e+02	9.75589605e-01
1.39500000e+02	9.75291879e-01
1.40500000e+02	9.74991769e-01
1.41500000e+02	9.74689275e-01
1.42500000e+02	9.74384397e-01
1.43500000e+02	9.74077134e-01
1.44500000e+02	9.73767486e-01
1.45500000e+02	9.73455453e-01
1.46500000e+02	9.73141036e-01
1.47500000e+02	9.72824234e-01
1.48500000e+02	9.72505049e-01
1.49500000e+02	9.72183479e-01
1.50500000e+02	9.71859526e-01
1.51500000e+02	9.71533191e-01
1.52500000e+02	9.71204472e-01
1.53500000e+02	9.70873373e-01
1.54500000e+02	9.70539892e-01
1.55500000e+02	9.70204030e-01
1.56500000e+02	9.69865789e-01
1.57500000e+02	9.69525170e-01
1.58500000e+02	9.69182172e-01
1.59500000e+02	9.68836798e-01
1.60500000e+02	9.68489048e-01
1.61500000e+02	9.68138923e-01
1.62500000e+02	9.67786424e-01
1.63500000e+02	9.67431552e-01
1.64500000e+02	9.67074309e-01
1.65500000e+02	9.66714696e-01
1.66500000e+02	9.66352713e-01
1.67500000e+02	9.65988363e-01
1.68500000e+02	9.65621646e-01
1.69500000e+02	9.65252563e-01
1.70500000e+02	9.64881116e-01
1.71500000e+02	9.64507305e-01
1.72500000e+02	9.64131133e-01
1.73500000e+02	9.63752601e-01
1.74500000e+02	9.63371709e-01
1.75500000e+02	9.62988459e-01
1.76500000e+02	9.62602853e-01
1.77500000e+02	9.62214890e-01
1.78500000e+02	9.61824573e-01
1.79500000e+02	9.61431903e-01
1.80500000e+02	9.61036880e-01
1.81500000e+02	9.60639506e-01
1.82500000e+02	9.60239781e-01
1.83500000e+02	9.59837707e-01
1.84500000e+02	9.59433284e-01
1.85500000e+02	9.59026514e-01
1.86500000e+02	9.58617396e-01
1.87500000e+02	9.58205933e-01
1.88500000e+02	9.57792123e-01
1.89500000e+02	9.57375968e-01
1.90500000e+02	9.56957468e-01
1.91500000e+02	9.56536623e-01
1.92500000e+02	9.56113434e-01
1.93500000e+02	9.55687900e-01
1.94500000e+02	9.55260022e-01
1.95500000e+02	9.54829799e-01
1.96500000e+02	9.54397231e-01
1.97500000e+02	9.53962317e-01
1.98500000e+02	9.53525057e-01
1.99500000e+02	9.53085450e-01
2.00500000e+02	9.52643495e-01
2.01500000e+02	9.52199191e-01
2.02500000e+02	9.51752536e-01
2.03500000e+02	9.51303528e-01
2.04500000e+02	9.50852167e-01
2.05500000e+02	9.50398450e-01
2.06500000e+02	9.49942375e-01
2.07500000e+02	9.49483938e-01
2.08500000e+02	9.49023139e-01
2.09500000e+02	9.48559973e-01
2.10500000e+02	9.48094438e-01
2.11500000e+02	9.47626531e-01
2.12500000e+02	9.47156246e-01
2.13500000e+02	9.46683581e-01
2.14500000e+02	9.46208531e-01
2.15500000e+02	9.45731092e-01
2.16500000e+02	9.45251258e-01
2.17500000e+02	9.44769024e-01
2.18500000e+02	9.44284385e-01
2.19500000e+02	9.43797335e-01
2.20500000e+02	9.43307867e-01
2.21500000e+02	9.42815975e-01
2.22500000e+02	9.42321652e-01
2.23500000e+02	9.41824889e-01
2.24500000e+02	9.41325680e-01
2.25500000e+02	9.40824016e-01
2.26500000e+02	9.40319888e-01
2.27500000e+02	9.39813288e-01
2.28500000e+02	9.39304204e-01
2.29500000e+02	9.38792628e-01
2.30500000e+02	9.38278548e-01
2.31500000e+02	9.37761954e-01
2.32500000e+02	9.37242834e-01
2.33500000e+02	9.36721176e-01
2.34500000e+02	9.36196966e-01
2.35500000e+02	9.35670193e-01
2.36500000e+02	9.35140841e-01
2.37500000e+02	9.34608898e-01
2.38500000e+02	9.34074347e-01
2.39500000e+02	9.33537173e-01
2.40500000e+02	9.32997359e-01
2.41500000e+02	9.32454890e-01
2.42500000e+02	9.31909748e-01
2.43500000e+02	9.31361913e-01
2.44500000e+02	9.30811368e-01
2.45500000e+02	9.30258093e-01
2.46500000e+02	9.29702068e-01
2.47500000e+02	9.29143271e-01
2.48500000e+02	9.28581680e-01
2.49500000e+02	9.28017274e-01
2.50500000e+02	9.27450029e-01
2.51500000e+02	9.26879921e-01
2.52500000e+02	9.26306924e-01
2.53500000e+02	9.25731014e-01
2.54500000e+02	9.25152163e-01
2.55500000e+02	9.24570344e-01
2.56500000e+02	9.23985529e-01
2.57500000e+02	9.23397688e-01
2.58500000e+02	9.22806791e-01
2.59500000e+02	9.22212808e-01
2.60500000e+02	9.21615705e-01
2.61500000e+02	9.21015451e-01
2.62500000e+02	9.20412011e-01
2.63500000e+02	9.19805349e-01
2.64500000e+02	9.19195431e-01
2.65500000e+02	9.18582219e-01
2.66500000e+02	9.17965675e-01
2.67500000e+02	9.17345759e-01
2.68500000e+02	9.16722432e-01
2.69500000e+02	9.16095652e-01
2.70500000e+02	9.15465377e-01
2.71500000e+02	9.14831563e-01
2.72500000e+02	9.14194165e-01
2.73500000e+02	9.13553138e-01
2.74500000e+02	9.12908434e-01
2.75500000e+02	9.12260005e-01
2.76500000e+02	9.11607801e-01
2.77500000e+02	9.10951772e-01
2.78500000e+02	9.10291865e-01
2.79500000e+02	9.09628028e-01
2.80500000e+02	9.08960206e-01
2.81500000e+02	9.08288343e-01
2.82500000e+02	9.07612382e-01
2.83500000e+02	9.06932264e-01
2.84500000e+02	9.06247929e-01
2.85500000e+02	9.05559317e-01
2.86500000e+02	9.04866365e-01
2.87500000e+02	9.04169009e-01
2.88500000e+02	9.03467183e-01
2.89500000e+02	9.02760821e-01
2.90500000e+02	9.02049854e-01
2.91500000e+02	9.01334214e-01
2.92500000e+02	9.00613829e-01
2.93500000e+02	8.99888627e-01
2.94500000e+02	8.99158533e-01
2.95500000e+02	8.98423472e-01
2.96500000e+02	8.97683368e-01
2.97500000e+02	8.96938142e-01
2.98500000e+02	8.96187714e-01
2.99500000e+02	8.95432002e-01
3.00500000e+02	8.94670925e-01
3.01500000e+02	8.93904396e-01
3.02500000e+02	8.93132330e-01
3.03500000e+02	8.92354640e-01
3.04500000e+02	8.91571237e-01
3.05500000e+02	8.90782029e-01
3.06500000e+02	8.89986925e-01
3.07500000e+02	8.89185831e-01
3.08500000e+02	8.88378651e-01
3.09500000e+02	8.87565289e-01
3.10500000e+02	8.86745645e-01
3.11500000e+02	8.85919620e-01
3.12500000e+02	8.85087112e-01
3.13500000e+02	8.84248018e-01
3.14500000e+02	8.83402232e-01
3.15500000e+02	8.82549649e-01
3.16500000e+02	8.81690160e-01
3.17500000e+02	8.80823656e-01
3.18500000e+02	8.79950026e-01
3.19500000e+02	8.79069155e-01
3.20500000e+02	8.78180931e-01
3.21500000e+02	8.77285238e-01
3.22500000e+02	8.76381956e-01
3.23500000e+02	8.75470969e-01
3.24500000e+02	8.74552154e-01
3.25500000e+02	8.73625389e-01
3.26500000e+02	8.72690552e-01
3.27500000e+02	8.71747516e-01
3.28500000e+02	8.70796154e-01
3.29500000e+02	8.69836339e-01
3.30500000e+02	8.68867940e-01
3.31500000e+02	8.67890825e-01
3.32500000e+02	8.66904863e-01
3.33500000e+02	8.65909918e-01
3.34500000e+02	8.64905854e-01
3.35500000e+02	8.63892535e-01
3.36500000e+02	8.62869821e-01
3.37500000e+02	8.61837572e-01
3.38500000e+02	8.60795647e-01
3.39500000e+02	8.59743902e-01
3.40500000e+02	8.58682193e-01
3.41500000e+02	8.57610375e-01
3.42500000e+02	8.56528299e-01
3.43500000e+02	8.55435818e-01
3.44500000e+02	8.54332782e-01
3.45500000e+02	8.53219040e-01
3.46500000e+02	8.52094438e-01
3.47500000e+02	8.50958825e-01
3.48500000e+02	8.49812044e-01
3.49500000e+02	8.48653941e-01
3.50500000e+02	8.47484357e-01
3.51500000e+02	8.46303134e-01
3.52500000e+02	8.45110113e-01
3.53500000e+02	8.43905134e-01
3.54500000e+02	8.42688034e-01
3.55500000e+02	8.41458651e-01
3.56500000e+02	8.40216822e-01
3.57500000e+02	8.38962381e-01
3.58500000e+02	8.37695164e-01
3.59500000e+02	8.36415004e-01
3.60500000e+02	8.35121734e-01
3.61500000e+02	8.33815185e-01
3.62500000e+02	8.32495189e-01
3.63500000e+02	8.31161576e-01
3.64500000e+02	8.29814176e-01
3.65500000e+02	8.28452818e-01
3.66500000e+02	8.27077330e-01
3.67500000e+02	8.25687541e-01
3.68500000e+02	8.24283279e-01
3.69500000e+02	8.22864369e-01
3.70500000e+02	8.21430639e-01
3.71500000e+02	8.19981915e-01
3.72500000e+02	8.18518023e-01
3.73500000e+02	8.17038789e-01
3.74500000e+02	8.15544038e-01
3.75500000e+02	8.14033597e-01
3.76500000e+02	8.12507291e-01
3.77500000e+02	8.10964946e-01
3.78500000e+02	8.09406387e-01
3.79500000e+02	8.07831440e-01
3.80500000e+02	8.06239933e-01
3.81500000e+02	8.04631691e-01
3.82500000e+02	8.03006541e-01
3.83500000e+02	8.01364312e-01
3.84500000e+02	7.99704832e-01
3.85500000e+02	7.98027929e-01
3.86500000e+02	7.96333434e-01
3.87500000e+02	7.94621178e-01
3.88500000e+02	7.92890991e-01
3.89500000e+02	7.91142708e-01
3.90500000e+02	7.89376161e-01
3.91500000e+02	7.87591187e-01
3.92500000e+02	7.85787622e-01
3.93500000e+02	7.83965304e-01
3.94500000e+02	7.82124074e-01
3.95500000e+02	7.80263774e-01
3.96500000e+02	7.78384246e-01
3.97500000e+02	7.76485338e-01
3.98500000e+02	7.74566895e-01
3.99500000e+02	7.72628770e-01
4.00500000e+02	7.70670814e-01
4.01500000e+02	7.68692882e-01
4.02500000e+02	7.66694832e-01
4.03500000e+02	7.64676524e-01
4.04500000e+02	7.62637822e-01
4.05500000e+02	7.60578592e-01
4.06500000e+02	7.58498705e-01
4.07500000e+02	7.56398032e-01
4.08500000e+02	7.54276451e-01
4.09500000e+02	7.52133841e-01
4.10500000e+02	7.49970087e-01
4.11500000e+02	7.47785077e-01
4.12500000e+02	7.45578702e-01
4.13500000e+02	7.43350858e-01
4.14500000e+02	7.41101446e-01
4.15500000e+02	7.38830371e-01
4.16500000e+02	7.36537543e-01
4.17500000e+02	7.34222876e-01
4.18500000e+02	7.31886288e-01
4.19500000e+02	7.29527705e-01
4.20500000e+02	7.27147056e-01
4.21500000e+02	7.24744276e-01
4.22500000e+02	7.22319305e-01
4.23500000e+02	7.19872089e-01
4.24500000e+02	7.17402580e-01
4.25500000e+02	7.14910735e-01
4.26500000e+02	7.12396517e-01
4.27500000e+02	7.09859896e-01
4.28500000e+02	7.07300848e-01
4.29500000e+02	7.04719354e-01
4.30500000e+02	7.02115403e-01
4.31500000e+02	6.99488989e-01
4.32500000e+02	6.96840115e-01
4.33500000e+02	6.94168787e-01
4.34500000e+02	6.91475021e-01
4.35500000e+02	6.88758840e-01
4.36500000e+02	6.86020270e-01
4.37500000e+02	6.83259348e-01
4.38500000e+02	6.80476117e-01
4.39500000e+02	6.77670625e-01
4.40500000e+02	6.74842931e-01
4.41500000e+02	6.71993098e-01
4.42500000e+02	6.69121198e-01
4.43500000e+02	6.66227309e-01
4.44500000e+02	6.63311518e-01
4.45500000e+02	6.60373917e-01
4.46500000e+02	6.57414607e-01
4.47500000e+02	6.54433697e-01
4.48500000e+02	6.51431302e-01
4.49500000e+02	6.48407545e-01
4.50500000e+02	6.45362556e-01
4.51500000e+02	6.42296474e-01
4.52500000e+02	6.39209444e-01
4.53500000e+02	6.36101619e-01
4.54500000e+02	6.32973158e-01
4.55500000e+02	6.29824231e-01
4.56500000e+02	6.26655013e-01
4.57500000e+02	6.23465686e-01
4.58500000e+02	6.20256441e-01
4.59500000e+02	6.17027478e-01
4.60500000e+02	6.13779001e-01
4.61500000e+02	6.10511224e-01
4.62500000e+02	6.07224369e-01
4.63500000e+02	6.03918666e-01
4.64500000e+02	6.00594351e-01
4.65500000e+02	5.97251669e-01
4.66500000e+02	5.93890876e-01
4.67500000e+02	5.90512231e-01
4.68500000e+02	5.87116005e-01
4.69500000e+02	5.83702477e-01
4.70500000e+02	5.80271934e-01
4.71500000e+02	5.76824672e-01
4.72500000e+02	5.73360998e-01
4.73500000e+02	5.69881225e-01
4.74500000e+02	5.66385679e-01
4.75500000e+02	5.62874693e-01
4.76500000e+02	5.59348612e-01
4.77500000e+02	5.55807792e-01
4.78500000e+02	5.52252598e-01
4.79500000e+02	5.48683408e-01
4.80500000e+02	5.45100611e-01
4.81500000e+02	5.41504609e-01
4.82500000e+02	5.37895814e-01
4.83500000e+02	5.34274654e-01
4.84500000e+02	5.30641569e-01
4.85500000e+02	5.26997013e-01
4.86500000e+02	5.23341455e-01
4.87500000e+02	5.19675380e-01
4.88500000e+02	5.15999286e-01
4.89500000e+02	5.12313690e-01
4.90500000e+02	5.08619124e-01
4.91500000e+02	5.04916138e-01
4.92500000e+02	5.01205300e-01
4.93500000e+02	4.97487196e-01
4.94500000e+02	4.93762432e-01
4.95500000e+02	4.90031632e-01
4.96500000e+02	4.86295442e-01
4.97500000e+02	4.82554527e-01
4.98500000e+02	4.78809573e-01
4.99500000e+02	4.75061290e-01
5.00500000e+02	4.71310407e-01
5.01500000e+02	4.67557676e-01
5.02500000e+02	4.63803872e-01
5.03500000e+02	4.60049792e-01
5.04500000e+02	4.56296257e-01
5.05500000e+02	4.52544109e-01
5.06500000e+02	4.48794214e-01
5.07500000e+02	4.45047461e-01
5.08500000e+02	4.41304760e-01
5.09500000e+02	4.37567045e-01
5.10500000e+02	4.33835269e-01
5.11500000e+02	4.30110408e-01
5.12500000e+02	4.26393459e-01
5.13500000e+02	4.22685435e-01
5.14500000e+02	4.18987370e-01
5.15500000e+02	4.15300316e-01
5.16500000e+02	4.11625338e-01
5.17500000e+02	4.07963518e-01
5.18500000e+02	4.04315949e-01
5.19500000e+02	4.00683738e-01
5.20500000e+02	3.97067997e-01
5.21500000e+02	3.93469849e-01
5.22500000e+02	3.89890420e-01
5.23500000e+02	3.86330840e-01
5.24500000e+02	3.82792239e-01
5.25500000e+02	3.79275743e-01
5.26500000e+02	3.75782475e-01
5.27500000e+02	3.72313551e-01
5.28500000e+02	3.68870075e-01
5.29500000e+02	3.65453140e-01
5.30500000e+02	3.62063820e-01
5.31500000e+02	3.58703172e-01
5.32500000e+02	3.55372232e-01
5.33500000e+02	3.52072008e-01
5.34500000e+02	3.48803485e-01
5.35500000e+02	3.45567615e-01
5.36500000e+02	3.42365316e-01
5.37500000e+02	3.39197473e-01
5.38500000e+02	3.36064932e-01
5.39500000e+02	3.32968498e-01
5.40500000e+02	3.29908935e-01
5.41500000e+02	3.26886962e-01
5.42500000e+02	3.23903251e-01
5.43500000e+02	3.20958427e-01
5.44500000e+02	3.18053067e-01
5.45500000e+02	3.15187695e-01
5.46500000e+02	3.12362787e-01
5.47500000e+02	3.09578765e-01
5.48500000e+02	3.06836000e-01
5.49500000e+02	3.04134810e-01
5.50500000e+02	3.01475460e-01
5.51500000e+02	2.98858165e-01
5.52500000e+02	2.96283086e-01
5.53500000e+02	2.93750334e-01
5.54500000e+02	2.91259971e-01
5.55500000e+02	2.88812009e-01
5.56500000e+02	2.86406411e-01
5.57500000e+02	2.84043097e-01
5.58500000e+02	2.81721939e-01
5.59500000e+02	2.79442769e-01
5.60500000e+02	2.77205375e-01
5.61500000e+02	2.75009508e-01
5.62500000e+02	2.72854880e-01
5.63500000e+02	2.70741169e-01
5.64500000e+02	2.68668019e-01
5.65500000e+02	2.66635043e-01
5.66500000e+02	2.64641826e-01
5.67500000e+02	2.62687926e-01
5.68500000e+02	2.60772875e-01
5.69500000e+02	2.58896185e-01
5.70500000e+02	2.57057345e-01
5.71500000e+02	2.55255828e-01
5.72500000e+02	2.53491089e-01
5.73500000e+02	2.51762569e-01
5.74500000e+02	2.50069698e-01
5.75500000e+02	2.48411893e-01
5.76500000e+02	2.46788563e-01
5.77500000e+02	2.45199111e-01
5.78500000e+02	2.43642932e-01
5.79500000e+02	2.42119418e-01
5.80500000e+02	2.40627959e-01
5.81500000e+02	2.39167942e-01
5.82500000e+02	2.37738754e-01
5.83500000e+02	2.36339784e-01
5.84500000e+02	2.34970421e-01
5.85500000e+02	2.33630061e-01
5.86500000e+02	2.32318099e-01
5.87500000e+02	2.31033938e-01
5.88500000e+02	2.29776985e-01
5.89500000e+02	2.28546654e-01
5.90500000e+02	2.27342367e-01
5.91500000e+02	2.26163551e-01
5.92500000e+02	2.25009643e-01
5.93500000e+02	2.23880087e-01
5.94500000e+02	2.22774336e-01
5.95500000e+02	2.21691854e-01
5.96500000e+02	2.20632111e-01
5.97500000e+02	2.19594591e-01
5.98500000e+02	2.18578785e-01
5.99500000e+02	2.17584193e-01
6.00500000e+02	2.16610329e-01
6.01500000e+02	2.15656715e-01
6.02500000e+02	2.14722882e-01
6.03500000e+02	2.13808374e-01
6.04500000e+02	2.12912743e-01
6.05500000e+02	2.12035555e-01
6.06500000e+02	2.11176383e-01
6.07500000e+02	2.10334810e-01
6.08500000e+02	2.09510432e-01
6.09500000e+02	2.08702854e-01
6.10500000e+02	2.07911689e-01
6.11500000e+02	2.07136562e-01
6.12500000e+02	2.06377108e-01
6.13500000e+02	2.05632971e-01
6.14500000e+02	2.04903804e-01
6.15500000e+02	2.04189270e-01
6.16500000e+02	2.03489041e-01
6.17500000e+02	2.02802798e-01
6.18500000e+02	2.02130233e-01
6.19500000e+02	2.01471042e-01
6.20500000e+02	2.00824935e-01
6.21500000e+02	2.00191627e-01
6.22500000e+02	1.99570842e-01
6.23500000e+02	1.98962313e-01
6.24500000e+02	1.98365781e-01
6.25500000e+02	1.97780993e-01
6.26500000e+02	1.97207706e-01
6.27500000e+02	1.96645685e-01
6.28500000e+02	1.96094699e-01
6.29500000e+02	1.95554529e-01
6.30500000e+02	1.95024958e-01
6.31500000e+02	1.94505782e-01
6.32500000e+02	1.93996799e-01
6.33500000e+02	1.93497816e-01
6.34500000e+02	1.93008647e-01
6.35500000e+02	1.92529112e-01
6.36500000e+02	1.92059038e-01
6.37500000e+02	1.91598258e-01
6.38500000e+02	1.91146613e-01
6.39500000e+02	1.90703947e-01
6.40500000e+02	1.90270114e-01
6.41500000e+02	1.89844972e-01
6.42500000e+02	1.89428386e-01
6.43500000e+02	1.89020224e-01
6.44500000e+02	1.88620365e-01
6.45500000e+02	1.88228690e-01
6.46500000e+02	1.87845087e-01
6.47500000e+02	1.87469450e-01
6.48500000e+02	1.87101678e-01
6.49500000e+02	1.86741675e-01
6.50500000e+02	1.86389351e-01
6.51500000e+02	1.86044623e-01
6.52500000e+02	1.85707409e-01
6.53500000e+02	1.85377638e-01
6.54500000e+02	1.85055241e-01
6.55500000e+02	1.84740146e-01
6.56500000e+02	1.84432311e-01
6.57500000e+02	1.84131689e-01
6.58500000e+02	1.83838173e-01
6.59500000e+02	1.83551741e-01
6.60500000e+02	1.83272369e-01
