# Profil de Te au temps 0.000000000000000e+00 
# simu : /Volumes/MERCURE/JOBS/Zeq1_tanh_50mic_7p5e19_B0_20ps/GNU/Te@y-c.set
# col 0 : abscisse (um)
# col 1 : Te (keV)
5.00000000e-01	9.99999987e-01
1.50000000e+00	9.99999987e-01
2.50000000e+00	9.99999986e-01
3.50000000e+00	9.99999985e-01
4.50000000e+00	9.99999985e-01
5.50000000e+00	9.99999984e-01
6.50000000e+00	9.99999984e-01
7.50000000e+00	9.99999983e-01
8.50000000e+00	9.99999982e-01
9.50000000e+00	9.99999981e-01
1.05000000e+01	9.99999981e-01
1.15000000e+01	9.99999980e-01
1.25000000e+01	9.99999979e-01
1.35000000e+01	9.99999978e-01
1.45000000e+01	9.99999977e-01
1.55000000e+01	9.99999976e-01
1.65000000e+01	9.99999975e-01
1.75000000e+01	9.99999974e-01
1.85000000e+01	9.99999973e-01
1.95000000e+01	9.99999972e-01
2.05000000e+01	9.99999971e-01
2.15000000e+01	9.99999970e-01
2.25000000e+01	9.99999969e-01
2.35000000e+01	9.99999968e-01
2.45000000e+01	9.99999966e-01
2.55000000e+01	9.99999965e-01
2.65000000e+01	9.99999963e-01
2.75000000e+01	9.99999962e-01
2.85000000e+01	9.99999960e-01
2.95000000e+01	9.99999959e-01
3.05000000e+01	9.99999957e-01
3.15000000e+01	9.99999955e-01
3.25000000e+01	9.99999953e-01
3.35000000e+01	9.99999952e-01
3.45000000e+01	9.99999950e-01
3.55000000e+01	9.99999948e-01
3.65000000e+01	9.99999945e-01
3.75000000e+01	9.99999943e-01
3.85000000e+01	9.99999941e-01
3.95000000e+01	9.99999938e-01
4.05000000e+01	9.99999936e-01
4.15000000e+01	9.99999933e-01
4.25000000e+01	9.99999931e-01
4.35000000e+01	9.99999928e-01
4.45000000e+01	9.99999925e-01
4.55000000e+01	9.99999922e-01
4.65000000e+01	9.99999918e-01
4.75000000e+01	9.99999915e-01
4.85000000e+01	9.99999912e-01
4.95000000e+01	9.99999908e-01
5.05000000e+01	9.99999904e-01
5.15000000e+01	9.99999900e-01
5.25000000e+01	9.99999896e-01
5.35000000e+01	9.99999892e-01
5.45000000e+01	9.99999888e-01
5.55000000e+01	9.99999883e-01
5.65000000e+01	9.99999878e-01
5.75000000e+01	9.99999873e-01
5.85000000e+01	9.99999868e-01
5.95000000e+01	9.99999863e-01
6.05000000e+01	9.99999857e-01
6.15000000e+01	9.99999851e-01
6.25000000e+01	9.99999845e-01
6.35000000e+01	9.99999839e-01
6.45000000e+01	9.99999833e-01
6.55000000e+01	9.99999826e-01
6.65000000e+01	9.99999819e-01
6.75000000e+01	9.99999811e-01
6.85000000e+01	9.99999803e-01
6.95000000e+01	9.99999795e-01
7.05000000e+01	9.99999787e-01
7.15000000e+01	9.99999778e-01
7.25000000e+01	9.99999769e-01
7.35000000e+01	9.99999760e-01
7.45000000e+01	9.99999750e-01
7.55000000e+01	9.99999740e-01
7.65000000e+01	9.99999729e-01
7.75000000e+01	9.99999718e-01
7.85000000e+01	9.99999707e-01
7.95000000e+01	9.99999695e-01
8.05000000e+01	9.99999682e-01
8.15000000e+01	9.99999669e-01
8.25000000e+01	9.99999656e-01
8.35000000e+01	9.99999642e-01
8.45000000e+01	9.99999627e-01
8.55000000e+01	9.99999612e-01
8.65000000e+01	9.99999596e-01
8.75000000e+01	9.99999580e-01
8.85000000e+01	9.99999563e-01
8.95000000e+01	9.99999545e-01
9.05000000e+01	9.99999526e-01
9.15000000e+01	9.99999507e-01
9.25000000e+01	9.99999487e-01
9.35000000e+01	9.99999466e-01
9.45000000e+01	9.99999444e-01
9.55000000e+01	9.99999421e-01
9.65000000e+01	9.99999398e-01
9.75000000e+01	9.99999373e-01
9.85000000e+01	9.99999348e-01
9.95000000e+01	9.99999321e-01
1.00500000e+02	9.99999293e-01
1.01500000e+02	9.99999264e-01
1.02500000e+02	9.99999234e-01
1.03500000e+02	9.99999203e-01
1.04500000e+02	9.99999171e-01
1.05500000e+02	9.99999137e-01
1.06500000e+02	9.99999101e-01
1.07500000e+02	9.99999065e-01
1.08500000e+02	9.99999027e-01
1.09500000e+02	9.99998987e-01
1.10500000e+02	9.99998946e-01
1.11500000e+02	9.99998903e-01
1.12500000e+02	9.99998858e-01
1.13500000e+02	9.99998811e-01
1.14500000e+02	9.99998763e-01
1.15500000e+02	9.99998712e-01
1.16500000e+02	9.99998660e-01
1.17500000e+02	9.99998605e-01
1.18500000e+02	9.99998548e-01
1.19500000e+02	9.99998489e-01
1.20500000e+02	9.99998427e-01
1.21500000e+02	9.99998363e-01
1.22500000e+02	9.99998296e-01
1.23500000e+02	9.99998226e-01
1.24500000e+02	9.99998154e-01
1.25500000e+02	9.99998079e-01
1.26500000e+02	9.99998000e-01
1.27500000e+02	9.99997919e-01
1.28500000e+02	9.99997834e-01
1.29500000e+02	9.99997745e-01
1.30500000e+02	9.99997653e-01
1.31500000e+02	9.99997558e-01
1.32500000e+02	9.99997458e-01
1.33500000e+02	9.99997354e-01
1.34500000e+02	9.99997246e-01
1.35500000e+02	9.99997134e-01
1.36500000e+02	9.99997017e-01
1.37500000e+02	9.99996895e-01
1.38500000e+02	9.99996768e-01
1.39500000e+02	9.99996636e-01
1.40500000e+02	9.99996499e-01
1.41500000e+02	9.99996356e-01
1.42500000e+02	9.99996208e-01
1.43500000e+02	9.99996053e-01
1.44500000e+02	9.99995892e-01
1.45500000e+02	9.99995724e-01
1.46500000e+02	9.99995550e-01
1.47500000e+02	9.99995368e-01
1.48500000e+02	9.99995179e-01
1.49500000e+02	9.99994982e-01
1.50500000e+02	9.99994777e-01
1.51500000e+02	9.99994564e-01
1.52500000e+02	9.99994342e-01
1.53500000e+02	9.99994112e-01
1.54500000e+02	9.99993871e-01
1.55500000e+02	9.99993621e-01
1.56500000e+02	9.99993361e-01
1.57500000e+02	9.99993090e-01
1.58500000e+02	9.99992808e-01
1.59500000e+02	9.99992514e-01
1.60500000e+02	9.99992209e-01
1.61500000e+02	9.99991891e-01
1.62500000e+02	9.99991560e-01
1.63500000e+02	9.99991216e-01
1.64500000e+02	9.99990857e-01
1.65500000e+02	9.99990484e-01
1.66500000e+02	9.99990096e-01
1.67500000e+02	9.99989691e-01
1.68500000e+02	9.99989271e-01
1.69500000e+02	9.99988833e-01
1.70500000e+02	9.99988377e-01
1.71500000e+02	9.99987903e-01
1.72500000e+02	9.99987409e-01
1.73500000e+02	9.99986895e-01
1.74500000e+02	9.99986360e-01
1.75500000e+02	9.99985804e-01
1.76500000e+02	9.99985224e-01
1.77500000e+02	9.99984621e-01
1.78500000e+02	9.99983994e-01
1.79500000e+02	9.99983341e-01
1.80500000e+02	9.99982661e-01
1.81500000e+02	9.99981953e-01
1.82500000e+02	9.99981217e-01
1.83500000e+02	9.99980450e-01
1.84500000e+02	9.99979652e-01
1.85500000e+02	9.99978822e-01
1.86500000e+02	9.99977958e-01
1.87500000e+02	9.99977058e-01
1.88500000e+02	9.99976122e-01
1.89500000e+02	9.99975147e-01
1.90500000e+02	9.99974133e-01
1.91500000e+02	9.99973078e-01
1.92500000e+02	9.99971979e-01
1.93500000e+02	9.99970835e-01
1.94500000e+02	9.99969645e-01
1.95500000e+02	9.99968406e-01
1.96500000e+02	9.99967117e-01
1.97500000e+02	9.99965775e-01
1.98500000e+02	9.99964378e-01
1.99500000e+02	9.99962925e-01
2.00500000e+02	9.99961412e-01
2.01500000e+02	9.99959837e-01
2.02500000e+02	9.99958198e-01
2.03500000e+02	9.99956492e-01
2.04500000e+02	9.99954717e-01
2.05500000e+02	9.99952869e-01
2.06500000e+02	9.99950945e-01
2.07500000e+02	9.99948944e-01
2.08500000e+02	9.99946860e-01
2.09500000e+02	9.99944692e-01
2.10500000e+02	9.99942434e-01
2.11500000e+02	9.99940085e-01
2.12500000e+02	9.99937640e-01
2.13500000e+02	9.99935096e-01
2.14500000e+02	9.99932447e-01
2.15500000e+02	9.99929690e-01
2.16500000e+02	9.99926821e-01
2.17500000e+02	9.99923835e-01
2.18500000e+02	9.99920727e-01
2.19500000e+02	9.99917492e-01
2.20500000e+02	9.99914125e-01
2.21500000e+02	9.99910621e-01
2.22500000e+02	9.99906974e-01
2.23500000e+02	9.99903178e-01
2.24500000e+02	9.99899227e-01
2.25500000e+02	9.99895115e-01
2.26500000e+02	9.99890835e-01
2.27500000e+02	9.99886380e-01
2.28500000e+02	9.99881744e-01
2.29500000e+02	9.99876918e-01
2.30500000e+02	9.99871896e-01
2.31500000e+02	9.99866669e-01
2.32500000e+02	9.99861229e-01
2.33500000e+02	9.99855566e-01
2.34500000e+02	9.99849673e-01
2.35500000e+02	9.99843539e-01
2.36500000e+02	9.99837155e-01
2.37500000e+02	9.99830510e-01
2.38500000e+02	9.99823595e-01
2.39500000e+02	9.99816397e-01
2.40500000e+02	9.99808906e-01
2.41500000e+02	9.99801109e-01
2.42500000e+02	9.99792994e-01
2.43500000e+02	9.99784548e-01
2.44500000e+02	9.99775758e-01
2.45500000e+02	9.99766609e-01
2.46500000e+02	9.99757086e-01
2.47500000e+02	9.99747176e-01
2.48500000e+02	9.99736861e-01
2.49500000e+02	9.99726126e-01
2.50500000e+02	9.99714952e-01
2.51500000e+02	9.99703323e-01
2.52500000e+02	9.99691220e-01
2.53500000e+02	9.99678623e-01
2.54500000e+02	9.99665513e-01
2.55500000e+02	9.99651868e-01
2.56500000e+02	9.99637666e-01
2.57500000e+02	9.99622886e-01
2.58500000e+02	9.99607503e-01
2.59500000e+02	9.99591492e-01
2.60500000e+02	9.99574829e-01
2.61500000e+02	9.99557487e-01
2.62500000e+02	9.99539437e-01
2.63500000e+02	9.99520652e-01
2.64500000e+02	9.99501101e-01
2.65500000e+02	9.99480753e-01
2.66500000e+02	9.99459575e-01
2.67500000e+02	9.99437535e-01
2.68500000e+02	9.99414596e-01
2.69500000e+02	9.99390722e-01
2.70500000e+02	9.99365875e-01
2.71500000e+02	9.99340016e-01
2.72500000e+02	9.99313104e-01
2.73500000e+02	9.99285095e-01
2.74500000e+02	9.99255944e-01
2.75500000e+02	9.99225606e-01
2.76500000e+02	9.99194033e-01
2.77500000e+02	9.99161173e-01
2.78500000e+02	9.99126975e-01
2.79500000e+02	9.99091384e-01
2.80500000e+02	9.99054344e-01
2.81500000e+02	9.99015796e-01
2.82500000e+02	9.98975678e-01
2.83500000e+02	9.98933927e-01
2.84500000e+02	9.98890477e-01
2.85500000e+02	9.98845258e-01
2.86500000e+02	9.98798199e-01
2.87500000e+02	9.98749224e-01
2.88500000e+02	9.98698258e-01
2.89500000e+02	9.98645217e-01
2.90500000e+02	9.98590019e-01
2.91500000e+02	9.98532576e-01
2.92500000e+02	9.98472797e-01
2.93500000e+02	9.98410587e-01
2.94500000e+02	9.98345848e-01
2.95500000e+02	9.98278478e-01
2.96500000e+02	9.98208369e-01
2.97500000e+02	9.98135412e-01
2.98500000e+02	9.98059490e-01
2.99500000e+02	9.97980485e-01
3.00500000e+02	9.97898270e-01
3.01500000e+02	9.97812718e-01
3.02500000e+02	9.97723692e-01
3.03500000e+02	9.97631053e-01
3.04500000e+02	9.97534655e-01
3.05500000e+02	9.97434346e-01
3.06500000e+02	9.97329969e-01
3.07500000e+02	9.97221359e-01
3.08500000e+02	9.97108346e-01
3.09500000e+02	9.96990753e-01
3.10500000e+02	9.96868396e-01
3.11500000e+02	9.96741083e-01
3.12500000e+02	9.96608615e-01
3.13500000e+02	9.96470784e-01
3.14500000e+02	9.96327377e-01
3.15500000e+02	9.96178168e-01
3.16500000e+02	9.96022926e-01
3.17500000e+02	9.95861408e-01
3.18500000e+02	9.95693365e-01
3.19500000e+02	9.95518535e-01
3.20500000e+02	9.95336646e-01
3.21500000e+02	9.95147417e-01
3.22500000e+02	9.94950556e-01
3.23500000e+02	9.94745758e-01
3.24500000e+02	9.94532708e-01
3.25500000e+02	9.94311077e-01
3.26500000e+02	9.94080524e-01
3.27500000e+02	9.93840696e-01
3.28500000e+02	9.93591226e-01
3.29500000e+02	9.93331730e-01
3.30500000e+02	9.93061815e-01
3.31500000e+02	9.92781067e-01
3.32500000e+02	9.92489060e-01
3.33500000e+02	9.92185350e-01
3.34500000e+02	9.91869479e-01
3.35500000e+02	9.91540968e-01
3.36500000e+02	9.91199323e-01
3.37500000e+02	9.90844029e-01
3.38500000e+02	9.90474555e-01
3.39500000e+02	9.90090346e-01
3.40500000e+02	9.89690830e-01
3.41500000e+02	9.89275413e-01
3.42500000e+02	9.88843479e-01
3.43500000e+02	9.88394390e-01
3.44500000e+02	9.87927483e-01
3.45500000e+02	9.87442073e-01
3.46500000e+02	9.86937450e-01
3.47500000e+02	9.86412879e-01
3.48500000e+02	9.85867597e-01
3.49500000e+02	9.85300817e-01
3.50500000e+02	9.84711722e-01
3.51500000e+02	9.84099467e-01
3.52500000e+02	9.83463178e-01
3.53500000e+02	9.82801952e-01
3.54500000e+02	9.82114855e-01
3.55500000e+02	9.81400920e-01
3.56500000e+02	9.80659148e-01
3.57500000e+02	9.79888509e-01
3.58500000e+02	9.79087936e-01
3.59500000e+02	9.78256330e-01
3.60500000e+02	9.77392555e-01
3.61500000e+02	9.76495441e-01
3.62500000e+02	9.75563778e-01
3.63500000e+02	9.74596322e-01
3.64500000e+02	9.73591788e-01
3.65500000e+02	9.72548855e-01
3.66500000e+02	9.71466160e-01
3.67500000e+02	9.70342303e-01
3.68500000e+02	9.69175841e-01
3.69500000e+02	9.67965293e-01
3.70500000e+02	9.66709136e-01
3.71500000e+02	9.65405804e-01
3.72500000e+02	9.64053694e-01
3.73500000e+02	9.62651157e-01
3.74500000e+02	9.61196505e-01
3.75500000e+02	9.59688008e-01
3.76500000e+02	9.58123895e-01
3.77500000e+02	9.56502354e-01
3.78500000e+02	9.54821534e-01
3.79500000e+02	9.53079543e-01
3.80500000e+02	9.51274450e-01
3.81500000e+02	9.49404289e-01
3.82500000e+02	9.47467054e-01
3.83500000e+02	9.45460705e-01
3.84500000e+02	9.43383170e-01
3.85500000e+02	9.41232343e-01
3.86500000e+02	9.39006089e-01
3.87500000e+02	9.36702247e-01
3.88500000e+02	9.34318628e-01
3.89500000e+02	9.31853025e-01
3.90500000e+02	9.29303208e-01
3.91500000e+02	9.26666935e-01
3.92500000e+02	9.23941950e-01
3.93500000e+02	9.21125990e-01
3.94500000e+02	9.18216790e-01
3.95500000e+02	9.15212084e-01
3.96500000e+02	9.12109616e-01
3.97500000e+02	9.08907140e-01
3.98500000e+02	9.05602428e-01
3.99500000e+02	9.02193278e-01
4.00500000e+02	8.98677516e-01
4.01500000e+02	8.95053010e-01
4.02500000e+02	8.91317669e-01
4.03500000e+02	8.87469457e-01
4.04500000e+02	8.83506401e-01
4.05500000e+02	8.79426595e-01
4.06500000e+02	8.75228211e-01
4.07500000e+02	8.70909511e-01
4.08500000e+02	8.66468851e-01
4.09500000e+02	8.61904697e-01
4.10500000e+02	8.57215627e-01
4.11500000e+02	8.52400350e-01
4.12500000e+02	8.47457709e-01
4.13500000e+02	8.42386694e-01
4.14500000e+02	8.37186454e-01
4.15500000e+02	8.31856305e-01
4.16500000e+02	8.26395743e-01
4.17500000e+02	8.20804451e-01
4.18500000e+02	8.15082310e-01
4.19500000e+02	8.09229412e-01
4.20500000e+02	8.03246066e-01
4.21500000e+02	7.97132808e-01
4.22500000e+02	7.90890409e-01
4.23500000e+02	7.84519886e-01
4.24500000e+02	7.78022505e-01
4.25500000e+02	7.71399792e-01
4.26500000e+02	7.64653534e-01
4.27500000e+02	7.57785790e-01
4.28500000e+02	7.50798888e-01
4.29500000e+02	7.43695434e-01
4.30500000e+02	7.36478309e-01
4.31500000e+02	7.29150674e-01
4.32500000e+02	7.21715965e-01
4.33500000e+02	7.14177893e-01
4.34500000e+02	7.06540442e-01
4.35500000e+02	6.98807860e-01
4.36500000e+02	6.90984659e-01
4.37500000e+02	6.83075601e-01
4.38500000e+02	6.75085694e-01
4.39500000e+02	6.67020176e-01
4.40500000e+02	6.58884511e-01
4.41500000e+02	6.50684369e-01
4.42500000e+02	6.42425614e-01
4.43500000e+02	6.34114290e-01
4.44500000e+02	6.25756602e-01
4.45500000e+02	6.17358898e-01
4.46500000e+02	6.08927652e-01
4.47500000e+02	6.00469444e-01
4.48500000e+02	5.91990939e-01
4.49500000e+02	5.83498867e-01
4.50500000e+02	5.75000000e-01
4.51500000e+02	5.66501133e-01
4.52500000e+02	5.58009061e-01
4.53500000e+02	5.49530556e-01
4.54500000e+02	5.41072348e-01
4.55500000e+02	5.32641102e-01
4.56500000e+02	5.24243398e-01
4.57500000e+02	5.15885710e-01
4.58500000e+02	5.07574386e-01
4.59500000e+02	4.99315631e-01
4.60500000e+02	4.91115489e-01
4.61500000e+02	4.82979824e-01
4.62500000e+02	4.74914306e-01
4.63500000e+02	4.66924399e-01
4.64500000e+02	4.59015341e-01
4.65500000e+02	4.51192140e-01
4.66500000e+02	4.43459558e-01
4.67500000e+02	4.35822107e-01
4.68500000e+02	4.28284035e-01
4.69500000e+02	4.20849326e-01
4.70500000e+02	4.13521691e-01
4.71500000e+02	4.06304566e-01
4.72500000e+02	3.99201112e-01
4.73500000e+02	3.92214210e-01
4.74500000e+02	3.85346466e-01
4.75500000e+02	3.78600208e-01
4.76500000e+02	3.71977495e-01
4.77500000e+02	3.65480114e-01
4.78500000e+02	3.59109591e-01
4.79500000e+02	3.52867192e-01
4.80500000e+02	3.46753934e-01
4.81500000e+02	3.40770588e-01
4.82500000e+02	3.34917690e-01
4.83500000e+02	3.29195549e-01
4.84500000e+02	3.23604257e-01
4.85500000e+02	3.18143695e-01
4.86500000e+02	3.12813546e-01
4.87500000e+02	3.07613306e-01
4.88500000e+02	3.02542291e-01
4.89500000e+02	2.97599650e-01
4.90500000e+02	2.92784373e-01
4.91500000e+02	2.88095303e-01
4.92500000e+02	2.83531149e-01
4.93500000e+02	2.79090489e-01
4.94500000e+02	2.74771789e-01
4.95500000e+02	2.70573405e-01
4.96500000e+02	2.66493599e-01
4.97500000e+02	2.62530543e-01
4.98500000e+02	2.58682331e-01
4.99500000e+02	2.54946990e-01
5.00500000e+02	2.51322484e-01
5.01500000e+02	2.47806722e-01
5.02500000e+02	2.44397572e-01
5.03500000e+02	2.41092860e-01
5.04500000e+02	2.37890384e-01
5.05500000e+02	2.34787916e-01
5.06500000e+02	2.31783210e-01
5.07500000e+02	2.28874010e-01
5.08500000e+02	2.26058050e-01
5.09500000e+02	2.23333065e-01
5.10500000e+02	2.20696792e-01
5.11500000e+02	2.18146975e-01
5.12500000e+02	2.15681372e-01
5.13500000e+02	2.13297753e-01
5.14500000e+02	2.10993911e-01
5.15500000e+02	2.08767657e-01
5.16500000e+02	2.06616830e-01
5.17500000e+02	2.04539295e-01
5.18500000e+02	2.02532946e-01
5.19500000e+02	2.00595711e-01
5.20500000e+02	1.98725550e-01
5.21500000e+02	1.96920457e-01
5.22500000e+02	1.95178466e-01
5.23500000e+02	1.93497646e-01
5.24500000e+02	1.91876105e-01
5.25500000e+02	1.90311992e-01
5.26500000e+02	1.88803495e-01
5.27500000e+02	1.87348843e-01
5.28500000e+02	1.85946306e-01
5.29500000e+02	1.84594196e-01
5.30500000e+02	1.83290864e-01
5.31500000e+02	1.82034707e-01
5.32500000e+02	1.80824159e-01
5.33500000e+02	1.79657697e-01
5.34500000e+02	1.78533840e-01
5.35500000e+02	1.77451145e-01
5.36500000e+02	1.76408212e-01
5.37500000e+02	1.75403678e-01
5.38500000e+02	1.74436222e-01
5.39500000e+02	1.73504559e-01
5.40500000e+02	1.72607445e-01
5.41500000e+02	1.71743670e-01
5.42500000e+02	1.70912064e-01
5.43500000e+02	1.70111491e-01
5.44500000e+02	1.69340852e-01
5.45500000e+02	1.68599080e-01
5.46500000e+02	1.67885145e-01
5.47500000e+02	1.67198048e-01
5.48500000e+02	1.66536822e-01
5.49500000e+02	1.65900533e-01
5.50500000e+02	1.65288278e-01
5.51500000e+02	1.64699183e-01
5.52500000e+02	1.64132403e-01
5.53500000e+02	1.63587121e-01
5.54500000e+02	1.63062550e-01
5.55500000e+02	1.62557927e-01
5.56500000e+02	1.62072517e-01
5.57500000e+02	1.61605610e-01
5.58500000e+02	1.61156521e-01
5.59500000e+02	1.60724587e-01
5.60500000e+02	1.60309170e-01
5.61500000e+02	1.59909654e-01
5.62500000e+02	1.59525445e-01
5.63500000e+02	1.59155971e-01
5.64500000e+02	1.58800677e-01
5.65500000e+02	1.58459032e-01
5.66500000e+02	1.58130521e-01
5.67500000e+02	1.57814650e-01
5.68500000e+02	1.57510940e-01
5.69500000e+02	1.57218933e-01
5.70500000e+02	1.56938185e-01
5.71500000e+02	1.56668270e-01
5.72500000e+02	1.56408774e-01
5.73500000e+02	1.56159304e-01
5.74500000e+02	1.55919476e-01
5.75500000e+02	1.55688923e-01
5.76500000e+02	1.55467292e-01
5.77500000e+02	1.55254242e-01
5.78500000e+02	1.55049444e-01
5.79500000e+02	1.54852583e-01
5.80500000e+02	1.54663354e-01
5.81500000e+02	1.54481465e-01
5.82500000e+02	1.54306635e-01
5.83500000e+02	1.54138592e-01
5.84500000e+02	1.53977074e-01
5.85500000e+02	1.53821832e-01
5.86500000e+02	1.53672623e-01
5.87500000e+02	1.53529216e-01
5.88500000e+02	1.53391385e-01
5.89500000e+02	1.53258917e-01
5.90500000e+02	1.53131604e-01
5.91500000e+02	1.53009247e-01
5.92500000e+02	1.52891654e-01
5.93500000e+02	1.52778641e-01
5.94500000e+02	1.52670031e-01
5.95500000e+02	1.52565654e-01
5.96500000e+02	1.52465345e-01
5.97500000e+02	1.52368947e-01
5.98500000e+02	1.52276308e-01
5.99500000e+02	1.52187282e-01
6.00500000e+02	1.52101730e-01
6.01500000e+02	1.52019515e-01
6.02500000e+02	1.51940510e-01
6.03500000e+02	1.51864588e-01
6.04500000e+02	1.51791631e-01
6.05500000e+02	1.51721522e-01
6.06500000e+02	1.51654152e-01
6.07500000e+02	1.51589413e-01
6.08500000e+02	1.51527203e-01
6.09500000e+02	1.51467424e-01
6.10500000e+02	1.51409981e-01
6.11500000e+02	1.51354783e-01
6.12500000e+02	1.51301742e-01
6.13500000e+02	1.51250776e-01
6.14500000e+02	1.51201801e-01
6.15500000e+02	1.51154742e-01
6.16500000e+02	1.51109523e-01
6.17500000e+02	1.51066073e-01
6.18500000e+02	1.51024322e-01
6.19500000e+02	1.50984204e-01
6.20500000e+02	1.50945656e-01
6.21500000e+02	1.50908616e-01
6.22500000e+02	1.50873025e-01
6.23500000e+02	1.50838827e-01
6.24500000e+02	1.50805967e-01
6.25500000e+02	1.50774394e-01
6.26500000e+02	1.50744056e-01
6.27500000e+02	1.50714905e-01
6.28500000e+02	1.50686896e-01
6.29500000e+02	1.50659984e-01
6.30500000e+02	1.50634125e-01
6.31500000e+02	1.50609278e-01
6.32500000e+02	1.50585404e-01
6.33500000e+02	1.50562465e-01
6.34500000e+02	1.50540425e-01
6.35500000e+02	1.50519247e-01
6.36500000e+02	1.50498899e-01
6.37500000e+02	1.50479348e-01
6.38500000e+02	1.50460563e-01
6.39500000e+02	1.50442513e-01
6.40500000e+02	1.50425171e-01
6.41500000e+02	1.50408508e-01
6.42500000e+02	1.50392497e-01
6.43500000e+02	1.50377114e-01
6.44500000e+02	1.50362334e-01
6.45500000e+02	1.50348132e-01
6.46500000e+02	1.50334487e-01
6.47500000e+02	1.50321377e-01
6.48500000e+02	1.50308780e-01
6.49500000e+02	1.50296677e-01
6.50500000e+02	1.50285048e-01
6.51500000e+02	1.50273874e-01
6.52500000e+02	1.50263139e-01
6.53500000e+02	1.50252824e-01
6.54500000e+02	1.50242914e-01
6.55500000e+02	1.50233391e-01
6.56500000e+02	1.50224242e-01
6.57500000e+02	1.50215452e-01
6.58500000e+02	1.50207006e-01
6.59500000e+02	1.50198891e-01
6.60500000e+02	1.50191094e-01
