# Profil de FluxX au temps 1.209999999999997e-12 
# simu : /Volumes/MERCURE/JOBS/tanh_10mic_Zeq2_B0/GNU/FluxX@y-c.set
# col 0 : abscisse (um)
# col 1 : FluxX (W/cm2)
0.000000	0.000000
0.200000	45885570.470783
0.400000	91727371.832469
0.600000	137974841.942476
0.800000	183989768.017595
1.000000	230798183.681014
1.200000	277795915.855237
1.400000	325146822.074043
1.600000	373040761.005576
1.800000	421556026.181452
2.000000	470736157.646352
2.200000	520639097.017694
2.400000	571343504.532785
2.600000	622939604.230668
2.800000	675520505.485932
3.000000	729177837.520235
3.200000	784000742.553824
3.400000	840076586.815938
3.600000	897492267.294653
3.800000	956335526.383853
4.000000	1016696019.260027
4.200000	1078666058.081337
4.400000	1142341063.950629
4.600000	1207819805.824116
4.800000	1275204479.816706
5.000000	1344600730.292746
5.200000	1416117650.510703
5.400000	1489867788.935570
5.600000	1565967201.713202
5.800000	1644535527.924611
6.000000	1725696112.268449
6.200000	1809576160.555453
6.400000	1896306908.916270
6.600000	1986023829.051405
6.800000	2078866831.510368
7.000000	2174980486.290265
7.200000	2274514253.385312
7.400000	2377622708.160051
7.600000	2484465785.182639
7.800000	2595209010.521969
8.000000	2710023752.374532
8.200000	2829087471.845570
8.400000	2952583970.963966
8.600000	3080703667.842816
8.800000	3213643857.095690
9.000000	3351608993.550832
9.200000	3494810975.454534
9.400000	3643469442.886521
9.600000	3797812083.810025
9.800000	3958074947.338304
10.000000	4124502771.064548
10.200000	4297349317.280644
10.400000	4476877721.524415
10.600000	4663360849.105193
10.800000	4857081668.882140
11.000000	5058333633.486896
11.200000	5267421077.015430
11.400000	5484659617.490407
11.600000	5710376583.443066
11.800000	5944911445.210649
12.000000	6188616267.790438
12.200000	6441856163.466486
12.400000	6705009778.924956
12.600000	6978469779.974001
12.800000	7262643362.366526
13.000000	7557952777.759430
13.200000	7864835865.006148
13.400000	8183746616.740697
13.600000	8515155743.693433
13.800000	8859551270.254431
14.000000	9217439142.223701
14.200000	9589343853.441786
14.400000	9975809092.683128
14.600000	10377398408.298780
14.800000	10794695892.318729
15.000000	11228306891.441830
15.200000	11678858724.659369
15.400000	12147001436.766649
15.600000	12633408561.401899
15.800000	13138777917.855480
16.000000	13663832419.866240
16.200000	14209320911.445848
16.400000	14776019028.078220
16.600000	15364730077.383787
16.800000	15976285948.823538
17.000000	16611548047.357561
17.200000	17271408242.735020
17.400000	17956789859.607269
17.600000	18668648684.243198
17.800000	19407973994.926140
18.000000	20175789624.946789
18.200000	20973155059.001659
18.400000	21801166536.804070
18.600000	22660958204.595840
18.800000	23553703287.496799
19.000000	24480615282.445660
19.200000	25442949196.624931
19.400000	26442002799.559837
19.600000	27479117913.274448
19.800000	28555681729.704800
20.000000	29673128154.587517
20.200000	30832939187.844696
20.400000	32036646330.943325
20.600000	33285832019.964722
20.800000	34582131092.659462
21.000000	35927232296.104347
21.200000	37322879802.561653
21.400000	38770874775.814026
21.600000	40273076956.934891
21.800000	41831406286.505684
22.000000	43447844548.352676
22.200000	45124437054.853256
22.400000	46863294349.009262
22.600000	48666593947.637367
22.800000	50536582103.622414
23.000000	52475575602.069130
23.200000	54485963586.166138
23.400000	56570209403.553520
23.600000	58730852481.345161
23.800000	60970510236.973015
24.000000	63291879997.189972
24.200000	65697740955.103920
24.400000	68190956148.664948
24.600000	70774474452.436081
24.800000	73451332604.569717
25.000000	76224657240.875000
25.200000	79097666957.499557
25.400000	82073674387.829254
25.600000	85156088295.469742
25.800000	88348415678.516373
26.000000	91654263895.469788
26.200000	95077342791.128281
26.400000	98621466847.995636
26.600000	102290557321.285599
26.800000	106088644405.657806
27.000000	110019869387.137985
27.200000	114088486803.772995
27.400000	118298866601.143387
27.600000	122655496288.587280
27.800000	127162983083.822998
28.000000	131826056058.645981
28.200000	136649568253.007309
28.400000	141638498797.705597
28.600000	146797955002.203796
28.800000	152133174429.802887
29.000000	157649526944.417694
29.200000	163352516729.635986
29.400000	169247784280.571899
29.600000	175341108360.947876
29.800000	181638407910.021881
30.000000	188145743921.318085
30.200000	194869321271.087585
30.400000	201815490489.219788
30.600000	208990749486.380005
30.800000	216401745207.618683
31.000000	224055275241.250183
31.200000	231958289345.618256
31.400000	240117890906.007599
31.600000	248541338315.292755
31.800000	257236046279.674957
32.000000	266209587024.986877
32.200000	275469691423.827515
32.400000	285024250014.786011
32.600000	294881313928.324585
32.800000	305049095702.720093
33.000000	315535969987.959290
33.200000	326350474134.751038
33.400000	337501308660.202271
33.600000	348997337578.340088
33.800000	360847588614.997498
34.000000	373061253263.876709
34.200000	385647686715.567627
34.400000	398616407632.674988
34.600000	411977097760.487671
34.800000	425739601394.188293
35.000000	439913924672.529480
35.200000	454510234702.899292
35.400000	469538858509.156250
35.600000	485010281805.410400
35.800000	500935147576.969177
36.000000	517324254472.197510
36.200000	534188555008.607422
36.400000	551539153563.686890
36.600000	569387304172.584717
36.800000	587744408115.905273
37.000000	606622011286.492798
37.200000	626031801347.830078
37.400000	645985604663.287354
37.600000	666495383002.634155
37.800000	687573230023.447632
38.000000	709231367511.684204
38.200000	731482141396.468384
38.400000	754338017512.267700
38.600000	777811577132.577026
38.800000	801915512255.866699
39.000000	826662620637.498535
39.200000	852065800585.937256
39.400000	878138045493.961426
39.600000	904892438136.097412
39.800000	932342144699.112183
40.000000	960500408566.892944
40.200000	989380543845.650635
40.400000	1018995928644.463989
40.600000	1049359998099.170898
40.800000	1080486237134.525024
41.000000	1112388172994.344971
41.200000	1145079367502.283936
41.400000	1178573409089.552002
41.600000	1212883904568.275879
41.800000	1248024470664.613037
42.000000	1284008725312.142822
42.200000	1320850278714.790039
42.400000	1358562724165.778076
42.600000	1397159628649.630859
42.800000	1436654523217.697021
43.000000	1477060893144.163818
43.200000	1518392167869.308838
43.400000	1560661710754.323975
43.600000	1603882808608.055908
43.800000	1648068661045.886963
44.000000	1693232369652.475098
44.200000	1739386926980.039062
44.400000	1786545205363.483887
44.600000	1834719945584.802002
44.800000	1883923745394.552002
45.000000	1934169047887.835938
45.200000	1985468129741.722656
45.400000	2037833089349.443848
45.600000	2091275834842.329834
45.800000	2145808072004.241699
46.000000	2201441292121.215820
46.200000	2258186759738.045898
46.400000	2316055500370.993164
46.600000	2375058288162.857910
46.800000	2435205633510.229980
47.000000	2496507770664.043945
47.200000	2558974645336.784180
47.400000	2622615902295.391602
47.600000	2687440872997.137695
47.800000	2753458563252.695801
48.000000	2820677640936.669922
48.200000	2889106423771.252930
48.400000	2958752867189.268555
48.600000	3029624552294.004883
48.800000	3101728673931.012695
49.000000	3175072028885.780762
49.200000	3249661004228.657715
49.400000	3325501565819.428711
49.600000	3402599246987.128906
49.800000	3480959137398.421875
50.000000	3560585872136.075684
50.200000	3641483620997.725586
50.400000	3723656078041.381836
50.600000	3807106451371.629395
50.800000	3891837453212.919434
51.000000	3977851290250.256348
51.200000	4065149654285.030762
51.400000	4153733713206.330078
51.600000	4243604102279.701172
51.800000	4334760915797.443359
52.000000	4427203699076.308594
52.200000	4520931440837.993164
52.400000	4615942565970.152344
52.600000	4712234928695.965820
52.800000	4809805806145.048828
53.000000	4908651892366.128906
53.200000	5008769292762.877930
53.400000	5110153518992.046875
53.600000	5212799484313.379883
53.800000	5316701499415.108398
54.000000	5421853268720.091797
54.200000	5528247887190.384766
54.400000	5635877837611.740234
54.600000	5744734988410.117188
54.800000	5854810591967.635742
55.000000	5966095283469.732422
55.200000	6078579080278.986328
55.400000	6192251381840.187500
55.600000	6307100970131.075195
55.800000	6423116010657.175781
56.000000	6540284053987.576172
56.200000	6658592037851.329102
56.400000	6778026289768.934570
56.600000	6898572530267.788086
56.800000	7020215876615.003906
57.000000	7142940847131.484375
57.200000	7266731366052.446289
57.400000	7391570768930.014648
57.600000	7517441808597.998047
57.800000	7644326661665.908203
58.000000	7772206935576.167969
58.200000	7901063676174.056641
58.400000	8030877375822.059570
58.600000	8161627982035.007812
58.800000	8293294906627.166992
59.000000	8425857035376.865234
59.200000	8559292738182.547852
59.400000	8693579879711.694336
59.600000	8828695830535.833984
59.800000	8964617478718.847656
60.000000	9101321241879.591797
60.200000	9238783079691.324219
60.400000	9376978506809.917969
60.600000	9515882606226.121094
60.800000	9655470043022.433594
61.000000	9795715078508.031250
61.200000	9936591584739.148438
61.400000	10078073059393.128906
61.600000	10220132640978.939453
61.800000	10362743124369.650391
62.000000	10505876976649.630859
62.200000	10649506353241.958984
62.400000	10793603114300.388672
62.600000	10938138841358.029297
62.800000	11083084854205.628906
63.000000	11228412227967.718750
63.200000	11374091810382.128906
63.400000	11520094239243.759766
63.600000	11666389959990.888672
63.800000	11812949243412.619141
64.000000	11959742203478.179688
64.200000	12106738815227.939453
64.400000	12253908932738.330078
64.600000	12401222307113.109375
64.800000	12548648604491.298828
65.000000	12696157424051.318359
65.200000	12843718315972.818359
65.400000	12991300799347.087891
65.600000	13138874380006.480469
65.800000	13286408568250.958984
66.000000	13433872896438.978516
66.200000	13581236936433.019531
66.400000	13728470316857.958984
66.600000	13875542740170.689453
66.800000	14022423999483.539062
67.000000	14169083995146.728516
67.200000	14315492751050.968750
67.400000	14461620430616.439453
67.600000	14607437352459.650391
67.800000	14752914005698.218750
68.000000	14898021064876.310547
68.200000	15042729404481.800781
68.400000	15187010113010.119141
68.600000	15330834506586.888672
68.800000	15474174142082.410156
69.000000	15617000829715.269531
69.200000	15759286645103.830078
69.400000	15901003940742.570312
69.600000	16042125356881.320312
69.800000	16182623831762.468750
70.000000	16322472611207.478516
70.200000	16461645257498.527344
70.400000	16600115657559.849609
70.600000	16737858030373.839844
70.800000	16874846933630.861328
71.000000	17011057269560.599609
71.200000	17146464289940.388672
71.400000	17281043600220.261719
71.600000	17414771162770.980469
71.800000	17547623299184.318359
72.000000	17679576691647.507812
72.200000	17810608383309.707031
72.400000	17940695777652.812500
72.600000	18069816636821.570312
72.800000	18197949078884.769531
73.000000	18325071574019.839844
73.200000	18451162939561.558594
73.400000	18576202333930.628906
73.600000	18700169249396.078125
73.800000	18823043503654.789062
74.000000	18944805230213.398438
74.200000	19065434867555.359375
74.400000	19184913147077.859375
74.600000	19303221079780.777344
74.800000	19420339941716.070312
75.000000	19536251258164.835938
75.200000	19650936786571.289062
75.400000	19764378498203.507812
75.600000	19876558558571.316406
75.800000	19987459306592.058594
76.000000	20097063232530.609375
76.200000	20205352954726.691406
76.400000	20312311195122.480469
76.600000	20417920753653.128906
76.800000	20522164481485.187500
77.000000	20625025253193.898438
77.200000	20726485937884.769531
77.400000	20826529369342.199219
77.600000	20925138315253.570312
77.800000	21022295445561.816406
78.000000	21117983300058.058594
78.200000	21212184255251.207031
78.400000	21304880490635.156250
78.600000	21396053954434.359375
78.800000	21485686328940.121094
79.000000	21573758995535.000000
79.200000	21660252999539.578125
79.400000	21745149014997.707031
79.600000	21828427309532.898438
79.800000	21910067709415.308594
80.000000	21990049564991.847656
80.200000	22068351716625.667969
80.400000	22144952461298.769531
80.600000	22219829520047.929688
80.800000	22292960006409.519531
81.000000	22364320396020.027344
81.200000	22433886497580.968750
81.400000	22501633425347.386719
81.600000	22567535573317.996094
81.800000	22631566591326.886719
82.000000	22693699363213.257812
82.200000	22753905987236.730469
82.400000	22812157758951.335938
82.600000	22868425156690.070312
82.800000	22922677829853.468750
83.000000	22974884590170.941406
83.200000	23025013406100.656250
83.400000	23073031400533.058594
83.600000	23118904851955.968750
83.800000	23162599199222.660156
84.000000	23204079050069.691406
84.200000	23243308193504.328125
84.400000	23280249616195.906250
84.600000	23314865522954.906250
84.800000	23347117361420.816406
85.000000	23376965851032.867188
85.200000	23404371016330.589844
85.400000	23429292224684.816406
85.600000	23451688228460.828125
85.800000	23471517211652.019531
86.000000	23488736841007.750000
86.200000	23503304321625.250000
86.400000	23515176457011.109375
86.600000	23524309713558.699219
86.800000	23530660289398.515625
87.000000	23534184187547.101562
87.200000	23534837293276.667969
87.400000	23532575455596.320312
87.600000	23527354572763.136719
87.800000	23519130681644.667969
88.000000	23507860050835.257812
88.200000	23493499277345.250000
88.400000	23476005386714.507812
88.600000	23455335936350.527344
88.800000	23431449121916.289062
89.000000	23404303886556.640625
89.200000	23373860032766.078125
89.400000	23340078336661.937500
89.600000	23302920664450.296875
89.800000	23262350090852.011719
90.000000	23218331019247.128906
90.200000	23170829303288.968750
90.400000	23119812369760.718750
90.600000	23065249342407.519531
90.800000	23007111166501.398438
91.000000	22945370733874.277344
91.200000	22880003008181.269531
91.400000	22810985150118.269531
91.600000	22738296642331.250000
91.800000	22661919413775.050781
92.000000	22581837963220.699219
92.200000	22498039481650.046875
92.400000	22410513973264.609375
92.600000	22319254374784.308594
92.800000	22224256672762.636719
93.000000	22125520018557.359375
93.200000	22023046840642.429688
93.400000	21916842953868.699219
93.600000	21806917665285.839844
93.800000	21693283876085.699219
94.000000	21575958179204.367188
94.200000	21454960952045.707031
94.400000	21330316443793.917969
94.600000	21202052856664.667969
94.800000	21070202420446.730469
95.000000	20934801459587.308594
95.200000	20795890451997.339844
95.400000	20653514078781.039062
95.600000	20507721263886.230469
95.800000	20358565202742.460938
96.000000	20206103378810.480469
96.200000	20050397566981.148438
96.400000	19891513822659.640625
96.600000	19729522455403.808594
96.800000	19564497985918.128906
97.000000	19396519085274.507812
97.200000	19225668495202.281250
97.400000	19052032928391.558594
97.600000	18875702947810.539062
97.800000	18696772824182.601562
98.000000	18515340370873.898438
98.200000	18331506755674.257812
98.400000	18145376289151.441406
98.600000	17957056189478.390625
98.800000	17766656323997.527344
99.000000	17574288927996.738281
99.200000	17380068301610.138672
99.400000	17184110486027.691406
99.600000	16986532920635.849609
99.800000	16787454083043.000000
100.000000	16586993114334.710938
100.200000	16385269432258.587891
100.400000	16182402335378.230469
100.600000	15978510601512.068359
100.800000	15773712084069.980469
101.000000	15568123310081.408203
101.200000	15361859083845.017578
101.400000	15155032100250.818359
101.600000	14947752571783.318359
101.800000	14740127873167.900391
102.000000	14532262207527.458984
102.200000	14324256297591.789062
102.400000	14116207105344.269531
102.600000	13908207583068.800781
102.800000	13700346458371.919922
103.000000	13492708055330.289062
103.200000	13285372153427.619141
103.400000	13078413885425.458984
103.600000	12871903674835.398438
103.800000	12665907213135.029297
104.000000	12460485476355.820312
104.200000	12255694780247.757812
104.400000	12051586872742.410156
104.600000	11848209062066.849609
104.800000	11645604378482.369141
105.000000	11443811767373.769531
105.200000	11242866311089.558594
105.400000	11042799476814.029297
105.600000	10843639387553.458984
105.800000	10645411113254.259766
106.000000	10448136979014.599609
106.200000	10251836887326.240234
106.400000	10056528651327.269531
106.600000	9862228336093.386719
106.800000	9668950605050.080078
107.000000	9476709068734.726562
107.200000	9285516633156.785156
107.400000	9095385845220.136719
107.600000	8906329232675.671875
107.800000	8718359636267.491211
108.000000	8531490531796.431641
108.200000	8345736339933.786133
108.400000	8161112721739.149414
108.600000	7977636857875.152344
108.800000	7795327709627.894531
109.000000	7614206259928.322266
109.200000	7434295732596.347656
109.400000	7255621788157.093750
109.600000	7078212694627.780273
109.800000	6902099471744.862305
110.000000	6727316007230.204102
110.200000	6553899143773.876953
110.400000	6381888735523.868164
110.600000	6211327673038.236328
110.800000	6042261875798.844727
111.000000	5874740251559.564453
111.200000	5708814622020.735352
111.400000	5544539614566.496094
111.600000	5381972520001.393555
111.800000	5221173116597.140625
112.000000	5062203460947.614258
112.200000	4905127646565.592773
112.400000	4750011531411.253906
112.600000	4596922435943.527344
112.800000	4445928813621.683594
113.000000	4297099896168.147949
113.200000	4150505316224.743652
113.400000	4006214710456.969238
113.600000	3864297306384.201172
113.800000	3724821496622.670410
114.000000	3587854404439.297852
114.200000	3453461444742.329590
114.400000	3321705884871.416992
114.600000	3192648409584.759766
114.800000	3066346694834.395020
115.000000	2942854994800.617676
115.200000	2822223746678.722168
115.400000	2704499197549.490234
115.600000	2589723057449.270020
115.800000	2477932182524.064941
116.000000	2369158291776.000488
116.200000	2263427720528.413086
116.400000	2160761213311.315918
116.600000	2061173758315.597656
116.800000	1964674465091.182129
117.000000	1871266486538.036865
117.200000	1780946985728.775879
117.400000	1693707147441.727051
117.600000	1609532233770.128906
117.800000	1528401682569.255859
118.000000	1450289246983.409912
118.200000	1375163173804.710938
118.400000	1302986417969.412842
118.600000	1233716890097.687988
118.800000	1167307733655.805908
119.000000	1103707628074.629883
119.200000	1042861113923.936035
119.400000	984708936175.980957
119.600000	929188401466.673950
119.800000	876233745331.336426
120.000000	825776505447.880371
120.200000	777745897045.954834
120.400000	732069186846.781250
120.600000	688672062128.061768
120.800000	647478991769.029175
121.000000	608413576399.816528
121.200000	571398885077.185425
121.400000	536357776191.441711
121.600000	503213200739.808838
121.800000	471888486642.737122
122.000000	442307603623.463867
122.200000	414395402820.173828
122.400000	388077855924.450989
122.600000	363282234941.308167
122.800000	339937299536.587280
123.000000	317973450856.395874
123.200000	297322869467.277222
123.400000	277919632064.882568
123.600000	259699804713.876465
123.800000	242601523144.861786
124.000000	226565050131.514496
124.200000	211532820339.957275
124.400000	197449474045.288086
124.600000	184261862895.008881
124.800000	171919053472.822906
125.000000	160372318146.927399
125.200000	149575120151.035492
125.400000	139483076758.301086
125.600000	130053922446.511475
125.800000	121247468027.641281
126.000000	113025549246.523697
126.200000	105351967969.312286
126.400000	98192436431.280685
126.600000	91514513913.835617
126.800000	85287538978.433792
127.000000	79482565552.354370
127.200000	74072293334.194366
127.400000	69030998005.149155
127.600000	64334464882.391373
127.800000	59959918026.575188
128.000000	55885953447.528137
128.200000	52092472450.648193
128.400000	48560615138.826958
128.600000	45272698033.278435
128.800000	42212150587.314117
