# Profil de ElecX au temps 1.200000000000016e-11 
# simu : /Volumes/MERCURE/JOBS/tanh_50mic_Zeq10_5e19_B0/GNU/ElecX@y-c.set
# col 0 : abscisse (um)
# col 1 : ElecX (V/m)
0.000000	0.000000
1.000000	3164.016304
2.000000	3119.896286
3.000000	4468.198072
4.000000	6923.347259
5.000000	8574.417135
6.000000	10277.889285
7.000000	11994.915150
8.000000	13716.537339
9.000000	15441.113340
10.000000	17169.031137
11.000000	18901.282511
12.000000	20637.844988
13.000000	22378.772093
14.000000	24124.788627
15.000000	25877.313826
16.000000	27634.011576
17.000000	29398.963290
18.000000	31168.733642
19.000000	32946.977098
20.000000	34732.038189
21.000000	36524.755015
22.000000	38326.170490
23.000000	40135.932883
24.000000	41954.291410
25.000000	43782.429541
26.000000	45620.194969
27.000000	47467.613478
28.000000	49325.629397
29.000000	51194.457426
30.000000	53074.445144
31.000000	54965.575059
32.000000	56868.582461
33.000000	58783.841193
34.000000	60711.552909
35.000000	62652.053900
36.000000	64605.405334
37.000000	66572.545720
38.000000	68553.374605
39.000000	70548.368907
40.000000	72557.595514
41.000000	74581.596361
42.000000	76620.752873
43.000000	78675.155416
44.000000	80745.270195
45.000000	82831.311801
46.000000	84933.357709
47.000000	87052.178696
48.000000	89187.702919
49.000000	91340.279787
50.000000	93510.261996
51.000000	95697.797439
52.000000	97903.096362
53.000000	100126.704039
54.000000	102368.615544
55.000000	104629.166360
56.000000	106908.606165
57.000000	109207.187211
58.000000	111525.011530
59.000000	113862.456773
60.000000	116219.742016
61.000000	118597.015014
62.000000	120994.527465
63.000000	123412.483996
64.000000	125851.063241
65.000000	128310.544594
66.000000	130790.928917
67.000000	133292.627298
68.000000	135815.718261
69.000000	138360.382171
70.000000	140926.799908
71.000000	143515.134770
72.000000	146125.551306
73.000000	148758.202390
74.000000	151413.254447
75.000000	154090.822622
76.000000	156791.029187
77.000000	159514.107783
78.000000	162260.105146
79.000000	165029.168886
80.000000	167821.421199
81.000000	170636.970051
82.000000	173475.934474
83.000000	176338.417175
84.000000	179224.517879
85.000000	182134.332667
86.000000	185067.957866
87.000000	188025.477895
88.000000	191006.923723
89.000000	194012.470055
90.000000	197042.119633
91.000000	200095.956234
92.000000	203174.042412
93.000000	206276.436124
94.000000	209403.192072
95.000000	212554.355647
96.000000	215729.977203
97.000000	218930.094676
98.000000	222154.744978
99.000000	225403.960763
100.000000	228677.770597
101.000000	231976.198800
102.000000	235299.266399
103.000000	238646.990057
104.000000	242019.383362
105.000000	245416.455654
106.000000	248838.213284
107.000000	252284.658714
108.000000	255755.791553
109.000000	259251.607833
110.000000	262772.100300
111.000000	266317.259004
112.000000	269887.071014
113.000000	273481.520053
114.000000	277100.587576
115.000000	280744.252318
116.000000	284412.490566
117.000000	288105.275303
118.000000	291822.579067
119.000000	295564.372434
120.000000	299330.608755
121.000000	303121.156725
122.000000	306936.138885
123.000000	310775.486062
124.000000	314639.154271
125.000000	318527.098976
126.000000	322439.275168
127.000000	326375.637745
128.000000	330336.142223
129.000000	334320.741806
130.000000	338329.376503
131.000000	342362.020173
132.000000	346418.611470
133.000000	350499.103488
134.000000	354603.446971
135.000000	358731.592426
136.000000	362883.492284
137.000000	367059.093138
138.000000	371258.341527
139.000000	375481.201799
140.000000	379727.616145
141.000000	383997.538208
142.000000	388290.923279
143.000000	392607.713457
144.000000	396947.877087
145.000000	401311.363901
146.000000	405698.130533
147.000000	410108.131728
148.000000	414541.332747
149.000000	418997.639841
150.000000	423476.883474
151.000000	427979.274390
152.000000	432504.753060
153.000000	437053.291039
154.000000	441624.857467
155.000000	446219.421384
156.000000	450836.953715
157.000000	455477.427939
158.000000	460140.820952
159.000000	464827.113218
160.000000	469536.289349
161.000000	474268.337339
162.000000	479023.249478
163.000000	483801.021495
164.000000	488601.653345
165.000000	493425.148633
166.000000	498271.515130
167.000000	503140.764411
168.000000	508032.912404
169.000000	512947.979130
170.000000	517885.988832
171.000000	522846.970424
172.000000	527830.957332
173.000000	532837.987404
174.000000	537868.103613
175.000000	542921.353762
176.000000	547997.790496
177.000000	553097.471884
178.000000	558220.461267
179.000000	563366.827117
180.000000	568536.643840
181.000000	573729.991360
182.000000	578946.955172
183.000000	584187.626945
184.000000	589452.104501
185.000000	594740.491261
186.000000	600052.897867
187.000000	605389.440365
188.000000	610750.242183
189.000000	616135.432888
190.000000	621545.149216
191.000000	626979.534658
192.000000	632438.739889
193.000000	637922.922699
194.000000	643432.248278
195.000000	648966.889487
196.000000	654527.026477
197.000000	660112.847548
198.000000	665724.548662
199.000000	671362.333919
200.000000	677026.415785
201.000000	682717.014969
202.000000	688434.360611
203.000000	694178.690955
204.000000	699950.252642
205.000000	705749.301656
206.000000	711576.102965
207.000000	717430.931182
208.000000	723314.070320
209.000000	729225.813917
210.000000	735166.465985
211.000000	741136.340247
212.000000	747135.760921
213.000000	753165.062698
214.000000	759224.591075
215.000000	765314.702515
216.000000	771435.764776
217.000000	777588.156784
218.000000	783772.269440
219.000000	789988.505543
220.000000	796237.279916
221.000000	802519.019893
222.000000	808834.165650
223.000000	815183.170108
224.000000	821566.499951
225.000000	827984.634965
226.000000	834438.069161
227.000000	840927.310637
228.000000	847452.882295
229.000000	854015.321707
230.000000	860615.181750
231.000000	867253.031131
232.000000	873929.454519
233.000000	880645.052691
234.000000	887400.443853
235.000000	894196.262881
236.000000	901033.162669
237.000000	907911.814164
238.000000	914832.906687
239.000000	921797.149065
240.000000	928805.269252
241.000000	935858.015346
242.000000	942956.156330
243.000000	950100.481868
244.000000	957291.803494
245.000000	964530.955074
246.000000	971818.793017
247.000000	979156.197177
248.000000	986544.071852
249.000000	993983.345332
250.000000	1001474.971641
251.000000	1009019.930643
252.000000	1016619.228856
253.000000	1024273.900000
254.000000	1031985.005942
255.000000	1039753.637334
256.000000	1047580.914190
257.000000	1055467.986728
258.000000	1063416.036562
259.000000	1071426.276600
260.000000	1079499.952595
261.000000	1087638.343709
262.000000	1095842.763195
263.000000	1104114.559572
264.000000	1112455.116952
265.000000	1120865.856355
266.000000	1129348.236564
267.000000	1137903.754519
268.000000	1146533.946806
269.000000	1155240.390065
270.000000	1164024.702179
271.000000	1172888.542935
272.000000	1181833.615413
273.000000	1190861.666117
274.000000	1199974.486462
275.000000	1209173.913685
276.000000	1218461.831330
277.000000	1227840.170652
278.000000	1237310.911031
279.000000	1246876.081283
280.000000	1256537.760359
281.000000	1266298.078130
282.000000	1276159.216634
283.000000	1286123.410412
284.000000	1296192.947714
285.000000	1306370.171376
286.000000	1316657.479413
287.000000	1327057.326020
288.000000	1337572.222220
289.000000	1348204.736729
290.000000	1358957.496817
291.000000	1369833.188846
292.000000	1380834.559040
293.000000	1391964.414356
294.000000	1403225.623009
295.000000	1414621.114921
296.000000	1426153.883028
297.000000	1437826.983047
298.000000	1449643.534766
299.000000	1461606.721940
300.000000	1473719.793648
301.000000	1485986.063907
302.000000	1498408.912929
303.000000	1510991.787065
304.000000	1523738.199575
305.000000	1536651.730650
306.000000	1549736.028416
307.000000	1562994.808631
308.000000	1576431.855618
309.000000	1590051.022062
310.000000	1603856.229768
311.000000	1617851.469707
312.000000	1632040.802270
313.000000	1646428.357721
314.000000	1661018.336129
315.000000	1675815.007937
316.000000	1690822.713937
317.000000	1706045.865492
318.000000	1721488.944628
319.000000	1737156.504609
320.000000	1753053.169482
321.000000	1769183.634771
322.000000	1785552.667352
323.000000	1802165.105487
324.000000	1819025.859299
325.000000	1836139.910458
326.000000	1853512.312639
327.000000	1871148.191291
328.000000	1889052.744125
329.000000	1907231.240756
330.000000	1925689.023010
331.000000	1944431.504926
332.000000	1963464.172784
333.000000	1982792.584950
334.000000	2002422.372053
335.000000	2022359.236922
336.000000	2042608.954394
337.000000	2063177.371253
338.000000	2084070.406022
339.000000	2105294.048984
340.000000	2126854.361534
341.000000	2148757.476317
342.000000	2171009.596512
343.000000	2193616.995597
344.000000	2216586.016643
345.000000	2239923.071897
346.000000	2263634.642034
347.000000	2287727.275118
348.000000	2312207.586127
349.000000	2337082.255553
350.000000	2362358.028174
351.000000	2388041.712142
352.000000	2414140.177199
353.000000	2440660.352985
354.000000	2467609.227347
355.000000	2494993.844664
356.000000	2522821.302768
357.000000	2551098.751665
358.000000	2579833.389843
359.000000	2609032.462344
360.000000	2638703.256714
361.000000	2668853.100561
362.000000	2699489.357269
363.000000	2730619.422219
364.000000	2762250.718706
365.000000	2794390.693441
366.000000	2827046.811325
367.000000	2860226.550761
368.000000	2893937.397719
369.000000	2928186.840294
370.000000	2962982.361839
371.000000	2998331.435025
372.000000	3034241.514326
373.000000	3070720.028760
374.000000	3107774.374236
375.000000	3145411.904932
376.000000	3183639.924855
377.000000	3222465.678893
378.000000	3261896.342817
379.000000	3301939.013502
380.000000	3342600.698583
381.000000	3383888.304979
382.000000	3425808.628296
383.000000	3468368.339935
384.000000	3511573.975299
385.000000	3555431.920835
386.000000	3599948.400444
387.000000	3645129.461676
388.000000	3690980.961336
389.000000	3737508.550730
390.000000	3784717.659971
391.000000	3832613.482403
392.000000	3881200.958263
393.000000	3930484.757597
394.000000	3980469.263189
395.000000	4031158.552644
396.000000	4082556.380510
397.000000	4134666.159180
398.000000	4187490.940151
399.000000	4241033.394728
400.000000	4295295.793834
401.000000	4350279.987974
402.000000	4405987.387066
403.000000	4462418.939326
404.000000	4519575.110190
405.000000	4577455.861512
406.000000	4636060.629488
407.000000	4695388.303514
408.000000	4755437.204427
409.000000	4816205.062458
410.000000	4877688.995835
411.000000	4939885.488705
412.000000	5002790.369753
413.000000	5066398.790624
414.000000	5130705.204507
415.000000	5195703.345326
416.000000	5261386.207092
417.000000	5327746.023195
418.000000	5394774.247404
419.000000	5462461.533813
420.000000	5530797.718619
421.000000	5599771.801935
422.000000	5669371.930873
423.000000	5739585.382753
424.000000	5810398.549717
425.000000	5881796.924339
426.000000	5953765.085761
427.000000	6026286.687516
428.000000	6099344.445872
429.000000	6172920.130078
430.000000	6246994.553234
431.000000	6321547.564735
432.000000	6396558.044150
433.000000	6472003.896076
434.000000	6547862.047146
435.000000	6624108.443306
436.000000	6700718.049721
437.000000	6777664.851180
438.000000	6854921.854542
439.000000	6932461.091954
440.000000	7010253.626112
441.000000	7088269.556187
442.000000	7166478.025508
443.000000	7244847.229925
444.000000	7323344.428081
445.000000	7401935.951385
446.000000	7480587.216610
447.000000	7559262.737717
448.000000	7637926.139328
449.000000	7716540.170502
450.000000	7795066.718941
451.000000	7873466.825228
452.000000	7951700.697990
453.000000	8029727.728095
454.000000	8107506.503646
455.000000	8184994.823915
456.000000	8262149.713729
457.000000	8338927.436790
458.000000	8415283.508387
459.000000	8491172.708196
460.000000	8566549.091411
461.000000	8641365.999602
462.000000	8715576.071128
463.000000	8789131.250063
464.000000	8861982.795187
465.000000	8934081.287877
466.000000	9005376.640300
467.000000	9075818.102295
468.000000	9145354.269417
469.000000	9213933.090648
470.000000	9281501.876886
471.000000	9348007.310738
472.000000	9413395.457314
473.000000	9477611.777680
474.000000	9540601.144521
475.000000	9602307.860786
476.000000	9662675.682901
477.000000	9721647.847487
478.000000	9779167.104312
479.000000	9835175.754587
480.000000	9889615.696348
481.000000	9942428.477279
482.000000	9993555.355910
483.000000	10042937.371926
484.000000	10090515.426503
485.000000	10136230.372642
486.000000	10180023.117446
487.000000	10221834.735578
488.000000	10261606.595245
489.000000	10299280.496601
490.000000	10334798.823240
491.000000	10368104.706457
492.000000	10399142.202370
493.000000	10427856.481968
494.000000	10454194.033273
495.000000	10478102.875084
496.000000	10499532.780939
497.000000	10518435.513260
498.000000	10534765.073141
499.000000	10548477.938074
500.000000	10559533.325216
501.000000	10567893.448495
502.000000	10573523.778686
503.000000	10576393.301335
504.000000	10576474.772980
505.000000	10573744.969372
506.000000	10568184.926160
507.000000	10559780.167137
508.000000	10548520.918130
509.000000	10534402.303498
510.000000	10517424.522892
511.000000	10497593.004241
512.000000	10474918.532297
513.000000	10449417.348999
514.000000	10421111.223946
515.000000	10390027.493961
516.000000	10356199.068697
517.000000	10319664.403050
518.000000	10280467.434240
519.000000	10238657.483833
520.000000	10194289.125269
521.000000	10147422.016296
522.000000	10098120.698929
523.000000	10046454.365374
524.000000	9992496.597861
525.000000	9936325.077501
526.000000	9878021.265684
527.000000	9817670.069307
528.000000	9755359.482654
529.000000	9691180.214065
530.000000	9625225.302833
531.000000	9557589.723813
532.000000	9488369.990773
533.000000	9417663.755643
534.000000	9345569.411385
535.000000	9272185.699357
536.000000	9197611.325463
537.000000	9121944.588303
538.000000	9045283.021307
539.000000	8967723.050482
540.000000	8889359.675640
541.000000	8810286.165673
542.000000	8730593.784359
543.000000	8650371.533245
544.000000	8569705.923207
545.000000	8488680.770251
546.000000	8407377.014664
547.000000	8325872.567094
548.000000	8244242.178271
549.000000	8162557.332405
550.000000	8080886.163575
551.000000	7999293.394879
552.000000	7917840.298198
553.000000	7836584.674064
554.000000	7755580.850243
555.000000	7674879.698728
556.000000	7594528.668572
557.000000	7514571.834872
558.000000	7435049.960992
559.000000	7356000.572402
560.000000	7277458.039452
561.000000	7199453.666515
562.000000	7122015.787156
563.000000	7045169.864021
564.000000	6968938.595237
565.000000	6893342.027594
566.000000	6818397.675660
567.000000	6744120.644057
568.000000	6670523.748032
569.000000	6597617.628791
570.000000	6525410.863345
571.000000	6453910.074551
572.000000	6383120.046022
573.000000	6313043.844432
574.000000	6243682.940120
575.000000	6175037.316012
576.000000	6107105.558670
577.000000	6039884.941636
578.000000	5973371.515780
579.000000	5907560.212653
580.000000	5842444.950313
581.000000	5778018.724627
582.000000	5714273.684042
583.000000	5651201.198690
584.000000	5588791.930986
585.000000	5527035.899187
586.000000	5465922.523373
587.000000	5405440.669040
588.000000	5345578.714426
589.000000	5286324.639825
590.000000	5227666.104059
591.000000	5169590.481155
592.000000	5112084.875396
593.000000	5055136.146509
594.000000	4998730.952213
595.000000	4942855.795044
596.000000	4887497.055279
597.000000	4832641.005718
598.000000	4778273.826720
599.000000	4724381.642390
600.000000	4670950.558502
601.000000	4617966.687562
602.000000	4565416.189139
603.000000	4513285.285161
604.000000	4461560.194403
605.000000	4410227.130658
606.000000	4359272.445237
607.000000	4308682.663153
608.000000	4258444.380902
609.000000	4208544.318021
610.000000	4158969.386358
611.000000	4109706.543583
612.000000	4060742.756307
613.000000	4012065.198903
614.000000	3963661.393404
615.000000	3915519.041438
616.000000	3867625.991704
617.000000	3819969.977368
618.000000	3772538.933550
619.000000	3725321.522521
620.000000	3678306.244835
621.000000	3631481.544263
622.000000	3584836.459397
623.000000	3538360.347689
624.000000	3492042.326319
625.000000	3445871.773278
626.000000	3399839.323562
627.000000	3353933.722504
628.000000	3308146.563295
629.000000	3262467.120653
630.000000	3216887.188810
631.000000	3171397.063893
632.000000	3125988.365709
633.000000	3080652.220185
634.000000	3035380.325454
635.000000	2990166.595127
636.000000	2944994.545640
637.000000	2899882.209323
638.000000	2854760.128713
639.000000	2809742.203750
640.000000	2764689.797055
641.000000	2719646.137005
642.000000	2674633.838399
643.000000	2629594.232338
644.000000	2584603.487640
645.000000	2539530.431006
646.000000	2494507.634026
647.000000	2449436.438941
648.000000	2404329.734118
649.000000	2359259.431717
650.000000	2314080.790223
651.000000	2268901.351045
652.000000	2223717.638170
653.000000	2178429.308738
654.000000	2133142.936816
655.000000	2087813.389676
656.000000	2042397.182329
657.000000	1996980.220891
658.000000	1951483.444144
659.000000	1905931.817964
660.000000	1860366.849789
661.000000	1814692.613199
662.000000	1768988.681941
663.000000	1723259.388506
664.000000	1677421.460375
665.000000	1631558.460285
666.000000	1585651.788165
667.000000	1539654.649580
668.000000	1493639.650828
669.000000	1447551.928046
670.000000	1401412.877444
671.000000	1355250.162524
672.000000	1308993.811502
673.000000	1262716.235887
674.000000	1216385.167575
675.000000	1169997.079632
676.000000	1123592.010970
677.000000	1077105.410995
678.000000	1030621.548901
679.000000	984068.683534
680.000000	937471.305223
681.000000	890863.944488
682.000000	844199.632257
683.000000	797500.168120
684.000000	750785.601203
685.000000	704023.301247
686.000000	657244.629599
687.000000	610424.842855
688.000000	563593.116047
689.000000	516722.638227
690.000000	469833.953379
691.000000	422925.452776
692.000000	375993.012715
693.000000	329040.311242
694.000000	282071.531680
695.000000	235086.926475
696.000000	188090.196892
697.000000	141160.625927
698.000000	93903.161053
699.000000	47104.663599
700.000000	0.000000
