# Simulation tanh_50mic_Zeq10_5e19_B0 
#
#temps 3.400000000000020e-12 s 
#position suivant x  101 (micron) 
#
#col 0 : vitesse (cm/s) 
#col 1 : f0 x v**2 (a. u.) 
#col 2 : m_e x f1 x v**5 / 2 (a. u.) 
#
24861416.497778	841395.052793	-0.000000
74584249.493334	7561914.889855	-0.000000
124307082.488890	20946329.314699	-0.000003
174029915.484445	40881983.901725	-0.000060
223752748.480001	67201379.390305	-0.000576
273475581.475557	99683928.808259	-0.003474
323198414.471113	138058264.454117	-0.015448
372921247.466669	182005064.738131	-0.055248
422644080.462225	231160364.275137	-0.167732
472366913.457781	285119304.604647	-0.448066
522089746.453336	343440277.333341	-1.079905
571812579.448892	405649407.501695	-2.391393
621535412.444448	471245320.169209	-4.932401
671258245.440004	539704131.068245	-9.575471
720981078.435560	610484599.704386	-17.641448
770703911.431116	683033382.205034	-31.048948
820426744.426672	756790320.956427	-52.484687
870149577.422228	831193708.719772	-85.589537
919872410.417783	905685466.445467	-135.153167
969595243.413339	979716176.368780	-207.308324
1019318076.408895	1052749915.117105	-309.714287
1069040909.404451	1124268835.420957	-451.717325
1118763742.400007	1193777449.521927	-644.473456
1168486575.395563	1260806572.423916	-901.015076
1218209408.391119	1324916888.647156	-1236.239022
1267932241.386675	1385702112.018396	-1666.792168
1317655074.382231	1442791714.164335	-2210.834309
1367377907.377786	1495853203.665345	-2887.667638
1417100740.373342	1544593944.170633	-3717.235331
1466823573.368898	1588762506.073795	-4719.505644
1516546406.364454	1628149552.504235	-5913.769086
1566269239.360010	1662588266.313327	-7317.882463
1615992072.355566	1691954330.343707	-8947.496166
1665714905.351122	1716165478.489698	-10815.299180
1715437738.346678	1735180639.821864	-12930.311667
1765160571.342233	1748998702.305194	-15297.252008
1814883404.337789	1757656926.342301	-17915.994980
1864606237.333345	1761229041.491710	-20781.138696
1914329070.328901	1759823062.223367	-23881.689336
1964051903.324457	1753578860.807054	-27200.868314
2013774736.320013	1742665535.008381	-30716.046944
2063497569.315569	1727278612.180069	-34398.806674
2113220402.311125	1707637128.349686	-38215.123421
2162943235.306680	1683980621.836914	-42125.671063
2212666068.302236	1656566079.692258	-46086.235920
2262388901.297792	1625664873.760119	-50048.238010
2312111734.293348	1591559721.259296	-53959.342567
2361834567.288904	1554541702.488089	-57764.159667
2411557400.284460	1514907365.655972	-61405.005938
2461280233.280015	1472955945.976759	-64822.737567
2511003066.275571	1428986723.089848	-67957.606108
2560725899.271127	1383296537.664776	-70750.161275
2610448732.266683	1336177484.747062	-73142.155488
2660171565.262239	1287914798.078041	-75077.447250
2709894398.257795	1238784936.315417	-76502.889424
2759617231.253351	1189053878.849386	-77369.180785
2809340064.248907	1138975635.789020	-77631.670757
2859062897.244462	1088790973.730490	-77251.106326
2908785730.240018	1038726356.138244	-76194.302354
2958508563.235574	988993094.612798	-74434.723543
3008231396.231130	939786704.991939	-71952.984672
3057954229.226686	891286460.167786	-68737.232500
3107677062.222242	843655129.700202	-64783.429094
3157399895.217798	797038894.783101	-60095.515516
3207122728.213354	751567425.866443	-54685.478251
3256845561.208910	707354109.261052	-48573.265501
3306568394.204465	664496408.334352	-41786.626360
3356291227.200021	623076344.451758	-34360.814589
3406014060.195577	583161082.587373	-26338.201721
3455736893.191133	544803606.538793	-17767.773896
3505459726.186689	508043468.876815	-8704.568203
3555182559.182245	472907601.155057	791.004056
3604905392.177801	439411170.445065	10653.865576
3654628225.173357	407558468.966804	20815.078732
3704351058.168912	377343824.018962	31202.655721
3754073891.164468	348752517.957239	41742.429853
3803796724.160024	321761705.738613	52358.910410
3853519557.155580	296341321.740650	62976.180275
3903242390.151136	272454966.994648	73518.742599
3952965223.146692	250060769.385963	83912.382739
4002688056.142248	229112210.413457	94084.951603
4052410889.137804	209558913.136863	103967.164214
4102133722.133359	191347386.943107	113493.272856
4151856555.128915	174421725.716426	122601.711643
4201579388.124471	158724256.907505	131235.712597
4251302221.120027	144196139.831433	139343.736876
4301025054.115582	130777912.306799	146879.927588
4350747887.111138	118409985.451799	153804.425068
4400470720.106694	107033087.076847	160083.604132
4450193553.102250	96588654.684306	165690.240995
4499916386.097806	87019179.545144	170603.572717
4549639219.093362	78268503.757446	174809.291963
4599362052.088918	70282072.502743	178299.450386
4649084885.084474	63007144.004878	181072.313625
4698807718.080029	56392959.888477	183132.112465
4748530551.075585	50390878.793209	184488.764563
4798253384.071141	44954476.181570	185157.511403
4847976217.066697	40039613.322648	185158.566740
4897699050.062253	35604478.440120	184516.632515
4947421883.057809	31609602.961881	183260.476531
4997144716.053365	28017855.749513	181422.395157
5046867549.048921	24794418.070060	179037.785348
5096590382.044477	21906741.956656	176144.570835
5146313215.040032	19324494.467184	172782.694332
5196036048.035588	17019490.173025	168993.663052
5245758881.031144	14965614.072632	164819.953623
5295481714.026700	13138736.925087	160304.675113
5345204547.022256	11516624.834070	155490.981262
5394927380.017812	10078844.744796	150421.752296
5444650213.013368	8806667.321347	145139.143926
5494373046.008924	7682968.524848	139684.249763
5544095879.004479	6692131.031020	134096.835161
5593818712.000035	5819946.488009	128414.953134
5643541544.995591	5053519.453888	122674.813593
5693264377.991147	4381173.722729	116910.537051
5742987210.986703	3792361.626151	111154.013933
5792710043.982259	3277576.772954	105434.728795
5842432876.977815	2828270.588685	99779.792531
5892155709.973371	2436772.919341	94213.851513
5941878542.968926	2096216.889627	88759.062025
5991601375.964482	1800468.113103	83435.146821
6041324208.960038	1544058.306315	78258.920451
6091047041.955594	1322123.290923	73243.935574
6140769874.951150	1130345.327094	68402.365180
6190492707.946706	964899.682810	63744.433786
6240215540.942262	822405.296599	59278.250255
6289938373.937818	699879.393079	55009.627142
6339661206.933373	594695.869631	50942.507549
6389384039.928929	504547.268771	47079.063239
6439106872.924485	427410.130064	43419.870561
6488829705.920041	361513.522603	39964.001938
6538552538.915597	305310.554208	36709.289830
6588275371.911153	257452.641286	33652.324337
6637998204.906709	216766.348053	30788.823334
6687721037.902265	182232.585188	28113.511261
6737443870.897820	152967.986689	25620.488994
6787166703.893376	128208.275212	23303.143915
6836889536.888932	107293.445979	21154.465107
6886612369.884488	89654.599870	19167.026171
6936335202.880044	74802.274924	17333.131979
6986058035.875600	62316.127509	15644.943012
7035780868.871156	51835.835580	14094.502030
7085503701.866712	43053.087074	12673.848280
7135226534.862267	35704.550165	11375.055229
7184949367.857823	29565.717567	10190.398081
7234672200.853379	24445.525720	9112.167027
7284395033.848935	20181.661644	8133.046860
7334117866.844491	16636.481218	7245.757415
7383840699.840047	13693.470299	6443.491624
7433563532.835603	11254.170626	5719.615653
7483286365.831159	9235.530214	5067.836162
7533009198.826715	7567.612941	4482.236251
7582732031.822270	6191.632559	3957.174362
7632454864.817826	5058.257212	3487.337235
7682177697.813382	4126.163603	3067.834229
7731900530.808938	3360.797565	2693.976282
7781623363.804494	2733.309439	2361.342108
7831346196.800050	2219.659913	2065.605519
7881069029.795606	1799.856548	1800.827652
7930791862.791162	1457.313819	1554.325687
