# Profil de ElecX au temps 1.200000000000016e-11 
# simu : /Volumes/MERCURE/JOBS/tanh_50mic_Zeq2_B0/GNU/ElecX@y-c.set
# col 0 : abscisse (um)
# col 1 : ElecX (V/m)
0.000000	0.000000
1.000000	2491.190712
2.000000	1905.118462
3.000000	2687.393747
4.000000	4486.396179
5.000000	5522.860274
6.000000	6613.472605
7.000000	7715.947051
8.000000	8820.987341
9.000000	9927.667235
10.000000	11036.009511
11.000000	12146.166585
12.000000	13258.311560
13.000000	14372.619808
14.000000	15489.265888
15.000000	16608.423702
16.000000	17730.266142
17.000000	18854.965271
18.000000	19982.692167
19.000000	21113.617155
20.000000	22247.909277
21.000000	23385.736433
22.000000	24527.265747
23.000000	25672.662863
24.000000	26822.091867
25.000000	27975.716203
26.000000	29133.697290
27.000000	30296.195386
28.000000	31463.369169
29.000000	32635.376071
30.000000	33812.371313
31.000000	34994.509444
32.000000	36181.942506
33.000000	37374.821205
34.000000	38573.294783
35.000000	39777.510350
36.000000	40987.613361
37.000000	42203.747693
38.000000	43426.055402
39.000000	44654.676228
40.000000	45889.748813
41.000000	47131.409447
42.000000	48379.792681
43.000000	49635.031459
44.000000	50897.256358
45.000000	52166.596669
46.000000	53443.179210
47.000000	54727.129656
48.000000	56018.571083
49.000000	57317.625260
50.000000	58624.411951
51.000000	59939.049036
52.000000	61261.652769
53.000000	62592.337463
54.000000	63931.215830
55.000000	65278.398574
56.000000	66633.995284
57.000000	67998.113258
58.000000	69370.858591
59.000000	70752.335611
60.000000	72142.647152
61.000000	73541.894571
62.000000	74950.177815
63.000000	76367.595307
64.000000	77794.244284
65.000000	79230.220559
66.000000	80675.618819
67.000000	82130.532567
68.000000	83595.054160
69.000000	85069.274899
70.000000	86553.285367
71.000000	88047.174777
72.000000	89551.032067
73.000000	91064.945070
74.000000	92589.001069
75.000000	94123.286828
76.000000	95667.888465
77.000000	97222.892032
78.000000	98788.382842
79.000000	100364.446259
80.000000	101951.167549
81.000000	103548.631778
82.000000	105156.924226
83.000000	106776.130283
84.000000	108406.335662
85.000000	110047.626486
86.000000	111700.089296
87.000000	113363.811231
88.000000	115038.880360
89.000000	116725.385230
90.000000	118423.415733
91.000000	120133.062415
92.000000	121854.417405
93.000000	123587.573705
94.000000	125332.626309
95.000000	127089.671045
96.000000	128858.806191
97.000000	130640.131180
98.000000	132433.747628
99.000000	134239.759280
100.000000	136058.272076
101.000000	137889.394078
102.000000	139733.235692
103.000000	141589.910477
104.000000	143459.534136
105.000000	145342.225347
106.000000	147238.105832
107.000000	149147.300649
108.000000	151069.937520
109.000000	153006.148138
110.000000	154956.067276
111.000000	156919.833654
112.000000	158897.589782
113.000000	160889.481745
114.000000	162895.660132
115.000000	164916.279340
116.000000	166951.498628
117.000000	169001.480907
118.000000	171066.394546
119.000000	173146.412213
120.000000	175241.711450
121.000000	177352.475050
122.000000	179478.890523
123.000000	181621.151323
124.000000	183779.455836
125.000000	185954.007972
126.000000	188145.017675
127.000000	190352.700470
128.000000	192577.277937
129.000000	194818.977699
130.000000	197078.033591
131.000000	199354.685877
132.000000	201649.181344
133.000000	203961.773186
134.000000	206292.721589
135.000000	208642.293434
136.000000	211010.762754
137.000000	213398.410606
138.000000	215805.525128
139.000000	218232.402468
140.000000	220679.345410
141.000000	223146.665168
142.000000	225634.680011
143.000000	228143.716645
144.000000	230674.109500
145.000000	233226.200977
146.000000	235800.342085
147.000000	238396.891731
148.000000	241016.217678
149.000000	243658.696130
150.000000	246324.711778
151.000000	249014.658313
152.000000	251728.938428
153.000000	254467.963594
154.000000	257232.154475
155.000000	260021.941183
156.000000	262837.762951
157.000000	265680.068602
158.000000	268549.316261
159.000000	271445.974246
160.000000	274370.520172
161.000000	277323.441633
162.000000	280305.236413
163.000000	283316.412180
164.000000	286357.486807
165.000000	289428.988700
166.000000	292531.456460
167.000000	295665.439053
168.000000	298831.496418
169.000000	302030.198984
170.000000	305262.128070
171.000000	308527.875959
172.000000	311828.045969
173.000000	315163.252154
174.000000	318534.120745
175.000000	321941.288357
176.000000	325385.403723
177.000000	328867.126929
178.000000	332387.129697
179.000000	335946.095734
180.000000	339544.720530
181.000000	343183.711780
182.000000	346863.789293
183.000000	350585.685203
184.000000	354350.144032
185.000000	358157.922790
186.000000	362009.791408
187.000000	365906.532524
188.000000	369848.941622
189.000000	373837.827635
190.000000	377874.012441
191.000000	381958.331330
192.000000	386091.633436
193.000000	390274.781452
194.000000	394508.651917
195.000000	398794.135298
196.000000	403132.136777
197.000000	407523.575361
198.000000	411969.384915
199.000000	416470.514158
200.000000	421027.926559
201.000000	425642.600835
202.000000	430315.531151
203.000000	435047.726896
204.000000	439840.213725
205.000000	444694.032918
206.000000	449610.242141
207.000000	454589.915153
208.000000	459634.143080
209.000000	464744.033313
210.000000	469920.710880
211.000000	475165.317737
212.000000	480479.013949
213.000000	485862.977467
214.000000	491318.404281
215.000000	496846.508878
216.000000	502448.524941
217.000000	508125.704687
218.000000	513879.320198
219.000000	519710.662733
220.000000	525621.044085
221.000000	531611.796133
222.000000	537684.271309
223.000000	543839.843181
224.000000	550079.906649
225.000000	556405.878172
226.000000	562819.196300
227.000000	569321.322188
228.000000	575913.739189
229.000000	582597.954522
230.000000	589375.498386
231.000000	596247.925087
232.000000	603216.813135
233.000000	610283.765898
234.000000	617450.411688
235.000000	624718.404597
236.000000	632089.424247
237.000000	639565.176931
238.000000	647147.395761
239.000000	654837.840978
240.000000	662638.300544
241.000000	670550.590393
242.000000	678576.555479
243.000000	686718.069445
244.000000	694977.035394
245.000000	703355.386804
246.000000	711855.087283
247.000000	720478.131513
248.000000	729226.545561
249.000000	738102.387652
250.000000	747107.747980
251.000000	756244.750185
252.000000	765515.550997
253.000000	774922.340981
254.000000	784467.345651
255.000000	794152.824889
256.000000	803981.074579
257.000000	813954.426096
258.000000	824075.247838
259.000000	834345.944844
260.000000	844768.959770
261.000000	855346.773739
262.000000	866081.906133
263.000000	876976.915559
264.000000	888034.400390
265.000000	899256.999176
266.000000	910647.391380
267.000000	922208.297388
268.000000	933942.479832
269.000000	945852.743394
270.000000	957941.935755
271.000000	970212.948071
272.000000	982668.715273
273.000000	995312.216961
274.000000	1008146.477279
275.000000	1021174.566564
276.000000	1034399.600435
277.000000	1047824.741558
278.000000	1061453.199166
279.000000	1075288.230594
280.000000	1089333.140426
281.000000	1103591.282397
282.000000	1118066.058849
283.000000	1132760.921604
284.000000	1147679.372371
285.000000	1162824.963478
286.000000	1178201.297463
287.000000	1193812.028568
288.000000	1209660.862478
289.000000	1225751.557021
290.000000	1242087.922177
291.000000	1258673.821270
292.000000	1275513.170052
293.000000	1292609.938476
294.000000	1309968.150053
295.000000	1327591.882523
296.000000	1345485.268092
297.000000	1363652.493788
298.000000	1382097.801532
299.000000	1400825.488704
300.000000	1419839.907896
301.000000	1439145.467785
302.000000	1458746.632488
303.000000	1478647.922333
304.000000	1498853.913681
305.000000	1519369.239298
306.000000	1540198.587977
307.000000	1561346.705133
308.000000	1582818.392063
309.000000	1604618.506888
310.000000	1626751.963418
311.000000	1649223.732364
312.000000	1672038.839671
313.000000	1695202.367620
314.000000	1718719.453922
315.000000	1742595.292026
316.000000	1766835.130069
317.000000	1791444.271374
318.000000	1816428.073415
319.000000	1841791.947989
320.000000	1867541.360089
321.000000	1893681.828170
322.000000	1920218.922846
323.000000	1947158.266658
324.000000	1974505.533751
325.000000	2002266.448091
326.000000	2030446.784017
327.000000	2059052.364488
328.000000	2088089.060390
329.000000	2117562.789967
330.000000	2147479.517228
331.000000	2177845.251294
332.000000	2208666.045186
333.000000	2239947.994480
334.000000	2271697.236172
335.000000	2303919.947264
336.000000	2336622.343352
337.000000	2369810.677240
338.000000	2403491.237215
339.000000	2437670.345519
340.000000	2472354.356660
341.000000	2507549.655611
342.000000	2543262.655624
343.000000	2579499.797047
344.000000	2616267.544334
345.000000	2653572.384604
346.000000	2691420.825326
347.000000	2729819.391599
348.000000	2768774.624483
349.000000	2808293.077776
350.000000	2848381.316108
351.000000	2889045.911806
352.000000	2930293.442458
353.000000	2972130.487815
354.000000	3014563.627315
355.000000	3057599.436244
356.000000	3101244.483523
357.000000	3145505.328004
358.000000	3190388.514915
359.000000	3235900.573085
360.000000	3282048.010830
361.000000	3328837.312581
362.000000	3376274.935382
363.000000	3424367.304479
364.000000	3473120.810003
365.000000	3522541.802476
366.000000	3572636.589012
367.000000	3623411.428860
368.000000	3674872.529170
369.000000	3727026.040377
370.000000	3779878.052023
371.000000	3833434.587663
372.000000	3887701.600229
373.000000	3942684.967547
374.000000	3998390.486469
375.000000	4054823.869030
376.000000	4111990.735918
377.000000	4169896.612255
378.000000	4228546.921640
379.000000	4287946.980653
380.000000	4348101.993294
381.000000	4409017.045478
382.000000	4470697.098706
383.000000	4533146.984475
384.000000	4596371.398038
385.000000	4660374.892066
386.000000	4725161.870646
387.000000	4790736.582519
388.000000	4857103.114862
389.000000	4924265.385746
390.000000	4992227.138662
391.000000	5060991.933982
392.000000	5130563.143210
393.000000	5200943.940469
394.000000	5272137.296059
395.000000	5344145.968368
396.000000	5416972.495841
397.000000	5490619.189536
398.000000	5565088.124551
399.000000	5640381.131975
400.000000	5716499.789809
401.000000	5793445.414473
402.000000	5871219.051577
403.000000	5949821.466546
404.000000	6029253.135112
405.000000	6109514.232663
406.000000	6190604.625020
407.000000	6272523.856651
408.000000	6355271.140174
409.000000	6438845.344659
410.000000	6523244.983744
411.000000	6608468.202811
412.000000	6694512.766472
413.000000	6781376.044620
414.000000	6869054.998180
415.000000	6957546.164370
416.000000	7046845.640781
417.000000	7136949.069385
418.000000	7227851.618809
419.000000	7319547.966465
420.000000	7412032.278772
421.000000	7505298.191605
422.000000	7599338.788716
423.000000	7694146.578446
424.000000	7789713.470622
425.000000	7886030.750566
426.000000	7983089.052304
427.000000	8080878.330290
428.000000	8179387.828535
429.000000	8278606.049039
430.000000	8378520.716918
431.000000	8479118.744847
432.000000	8580386.193605
433.000000	8682308.231728
434.000000	8784869.091696
435.000000	8888052.023351
436.000000	8991839.244894
437.000000	9096211.890221
438.000000	9201149.953882
439.000000	9306632.231648
440.000000	9412636.257509
441.000000	9519138.237918
442.000000	9626112.980522
443.000000	9733533.819985
444.000000	9841372.538256
445.000000	9949599.280966
446.000000	10058182.469014
447.000000	10167088.704217
448.000000	10276282.670781
449.000000	10385727.030961
450.000000	10495382.314898
451.000000	10605206.804789
452.000000	10715156.413306
453.000000	10825184.556152
454.000000	10935242.017619
455.000000	11045276.810928
456.000000	11155234.031598
457.000000	11265055.704970
458.000000	11374680.627181
459.000000	11484044.200455
460.000000	11593078.261848
461.000000	11701710.906944
462.000000	11809866.308140
463.000000	11917464.527461
464.000000	12024421.325937
465.000000	12130647.968609
466.000000	12236051.027398
467.000000	12340532.181560
468.000000	12443988.017875
469.000000	12546309.832069
470.000000	12647383.431483
471.000000	12747088.943393
472.000000	12845300.628334
473.000000	12941886.703343
474.000000	13036709.176467
475.000000	13129623.695000
476.000000	13220479.413014
477.000000	13309118.879766
478.000000	13395377.954959
479.000000	13479085.753530
480.000000	13560064.627146
481.000000	13638130.186538
482.000000	13713091.370250
483.000000	13784750.567706
484.000000	13852903.801001
485.000000	13917340.974636
486.000000	13977846.198480
487.000000	14034198.192728
488.000000	14086170.781711
489.000000	14133533.484118
490.000000	14176052.207090
491.000000	14213490.051086
492.000000	14245608.231284
493.000000	14272167.121884
494.000000	14292927.427642
495.000000	14307651.484491
496.000000	14316104.692491
497.000000	14318057.079061
498.000000	14313284.989830
499.000000	14301572.901755
500.000000	14282715.348941
501.000000	14256518.949778
502.000000	14222804.519279
503.000000	14181409.246699
504.000000	14132188.915538
505.000000	14075020.138155
506.000000	14009802.573768
507.000000	13936461.094988
508.000000	13854947.865011
509.000000	13765244.285287
510.000000	13667362.770970
511.000000	13561348.311709
512.000000	13447279.774382
513.000000	13325270.907753
514.000000	13195471.009553
515.000000	13058065.222615
516.000000	12913274.431434
517.000000	12761354.738134
518.000000	12602596.503802
519.000000	12437322.950930
520.000000	12265888.333519
521.000000	12088675.689380
522.000000	11906094.201330
523.000000	11718576.202937
524.000000	11526573.874047
525.000000	11330555.679135
526.000000	11131002.608334
527.000000	10928404.285917
528.000000	10723255.013456
529.000000	10516049.817451
530.000000	10307280.567589
531.000000	10097432.231347
532.000000	9886979.323948
533.000000	9676382.606926
534.000000	9466086.081174
535.000000	9256514.309982
536.000000	9048070.100820
537.000000	8841132.563195
538.000000	8636055.550353
539.000000	8433166.485759
540.000000	8232765.564601
541.000000	8035125.315277
542.000000	7840490.498097
543.000000	7649078.314929
544.000000	7461078.898495
545.000000	7276656.048114
546.000000	7095948.177512
547.000000	6919069.439055
548.000000	6746110.990278
549.000000	6577142.369187
550.000000	6412212.947363
551.000000	6251353.431671
552.000000	6094577.388771
553.000000	5941882.769107
554.000000	5793253.410676
555.000000	5648660.505132
556.000000	5508064.012708
557.000000	5371414.014495
558.000000	5238651.993770
559.000000	5109712.039856
560.000000	4984521.970734
561.000000	4863004.372511
562.000000	4745077.554379
563.000000	4630656.420802
564.000000	4519653.261898
565.000000	4411978.465731
566.000000	4307541.155119
567.000000	4206249.753578
568.000000	4108012.484161
569.000000	4012737.806471
570.000000	3920334.795595
571.000000	3830713.468359
572.000000	3743785.060952
573.000000	3659462.262181
574.000000	3577659.410355
575.000000	3498292.643948
576.000000	3421280.040752
577.000000	3346541.698128
578.000000	3273999.833246
579.000000	3203578.800608
580.000000	3135205.148435
581.000000	3068807.640221
582.000000	3004317.223048
583.000000	2941667.054096
584.000000	2880792.459613
585.000000	2821630.905210
586.000000	2764121.973298
587.000000	2708207.292563
588.000000	2653830.536072
589.000000	2600937.311929
590.000000	2549475.163667
591.000000	2499393.478259
592.000000	2450643.445355
593.000000	2403177.995193
594.000000	2356951.736231
595.000000	2311920.905229
596.000000	2268043.298830
597.000000	2225278.226051
598.000000	2183586.443355
599.000000	2142930.107064
600.000000	2103272.710836
601.000000	2064579.041709
602.000000	2026815.121852
603.000000	1989948.162850
604.000000	1953946.516293
605.000000	1918779.629546
606.000000	1884417.995954
607.000000	1850833.118444
608.000000	1817997.461591
609.000000	1785884.418423
610.000000	1754468.264355
611.000000	1723724.128779
612.000000	1693627.955608
613.000000	1664156.466139
614.000000	1635287.136587
615.000000	1606998.156031
616.000000	1579268.407051
617.000000	1552077.430815
618.000000	1525405.404415
619.000000	1499233.111891
620.000000	1473541.924418
621.000000	1448313.768524
622.000000	1423531.116098
623.000000	1399176.954465
624.000000	1375234.769964
625.000000	1351688.527713
626.000000	1328522.653541
627.000000	1305722.019594
628.000000	1283271.925033
629.000000	1261158.084308
630.000000	1239366.603374
631.000000	1217883.980574
632.000000	1196697.077808
633.000000	1175793.123386
634.000000	1155159.692132
635.000000	1134784.698139
636.000000	1114656.379977
637.000000	1094763.296673
638.000000	1075094.311302
639.000000	1055638.596317
640.000000	1036385.611701
641.000000	1017325.106413
642.000000	998447.112799
643.000000	979741.935175
644.000000	961200.149526
645.000000	942812.589830
646.000000	924570.352263
647.000000	906464.788470
648.000000	888487.492719
649.000000	870630.307274
650.000000	852885.312416
651.000000	835244.824619
652.000000	817701.521032
653.000000	800247.831709
654.000000	782876.853888
655.000000	765582.371163
656.000000	748358.375909
657.000000	731197.167303
658.000000	714094.231541
659.000000	697043.017584
660.000000	680037.772173
661.000000	663074.224957
662.000000	646146.076492
663.000000	629248.928457
664.000000	612378.418487
665.000000	595529.755828
666.000000	578699.008979
667.000000	561882.072805
668.000000	545075.397513
669.000000	528274.943994
670.000000	511478.042920
671.000000	494681.138202
672.000000	477881.336763
673.000000	461076.159751
674.000000	444262.658617
675.000000	427438.713629
676.000000	410602.038692
677.000000	393750.634263
678.000000	376882.803123
679.000000	359996.497932
680.000000	343090.210215
681.000000	326162.984852
682.000000	309212.819208
683.000000	292239.027452
684.000000	275240.685481
685.000000	258216.938920
686.000000	241166.967760
687.000000	224090.472589
688.000000	206987.342982
689.000000	189857.520932
690.000000	172701.274397
691.000000	155519.294906
692.000000	138312.554744
693.000000	121082.390467
694.000000	103830.579270
695.000000	86559.348162
696.000000	69272.710488
697.000000	52040.272312
698.000000	34466.149534
699.000000	17443.716107
700.000000	0.000000
